Data from ha05_c30L_FLMS070571_001.txt Node
Date: Tue Apr 10 16:29:53 EDT 2018
User: peter
Spectrometer: FLMS07057
Trigger mode: 0
Integration Time (sec): 2.000000E0
Scans to average: 4
Electric dark correction enabled: true
Nonlinearity correction enabled: false
Boxcar width: 0
XAxis mode: Wavelengths
Number of Pixels in Spectrum: 2048
>>>>>Begin Spectral Data<<<<<
 339.015  3.377e-03
 339.393  3.377e-03
 339.770  1.306e-03
 340.148  1.107e-03
 340.526 -8.830e-04
 340.904  2.293e-04
 341.281  2.206e-04
 341.659  1.245e-03
 342.036  3.413e-03
 342.414  9.468e-03
 342.791  9.452e-03
 343.169  7.170e-03
 343.546  1.573e-03
 343.923  2.390e-03
 344.301  3.424e-03
 344.678  7.090e-02
 345.055  7.087e-02
 345.432  7.323e-02
 345.810  3.685e-03
 346.187  1.765e-04
 346.564 -3.545e-03
 346.941 -6.687e-03
 347.318 -3.899e-03
 347.695 -3.436e-03
 348.071  6.056e-04
 348.448  5.973e-04
 348.825  5.256e-04
 349.202  4.377e-04
 349.578  3.513e-04
 349.955  4.305e-04
 350.332  4.690e-04
 350.708  5.317e-04
 351.085  4.814e-04
 351.461  4.683e-04
 351.838  3.987e-04
 352.214  3.208e-04
 352.591  3.181e-04
 352.967  3.790e-04
 353.343  4.536e-04
 353.719  4.196e-04
 354.096  3.966e-04
 354.472  4.192e-04
 354.848  4.511e-04
 355.224  4.820e-04
 355.600  4.610e-04
 355.976  4.296e-04
 356.352  3.646e-04
 356.728  3.420e-04
 357.104  3.288e-04
 357.479  3.276e-04
 357.855  2.946e-04
 358.231  2.921e-04
 358.607  3.106e-04
 358.982  3.512e-04
 359.358  3.310e-04
 359.734  3.322e-04
 360.109  2.962e-04
 360.484  2.963e-04
 360.860  2.637e-04
 361.235  2.241e-04
 361.611  2.183e-04
 361.986  1.970e-04
 362.361  2.414e-04
 362.736  2.365e-04
 363.112  2.294e-04
 363.487  2.129e-04
 363.862  2.085e-04
 364.237  2.091e-04
 364.612  1.905e-04
 364.987  1.893e-04
 365.362  1.923e-04
 365.737  2.149e-04
 366.112  2.154e-04
 366.486  2.112e-04
 366.861  1.755e-04
 367.236  1.919e-04
 367.610  1.909e-04
 367.985  2.014e-04
 368.360  1.747e-04
 368.734  1.566e-04
 369.109  1.719e-04
 369.483  1.745e-04
 369.858  1.947e-04
 370.232  1.788e-04
 370.606  1.703e-04
 370.981  1.535e-04
 371.355  1.606e-04
 371.729  1.723e-04
 372.103  1.828e-04
 372.477  1.768e-04
 372.851  1.655e-04
 373.225  1.517e-04
 373.599  1.319e-04
 373.973  1.321e-04
 374.347  1.422e-04
 374.721  1.581e-04
 375.095  1.401e-04
 375.469  1.316e-04
 375.842  1.099e-04
 376.216  1.247e-04
 376.590  1.127e-04
 376.963  1.364e-04
 377.337  1.205e-04
 377.710  1.200e-04
 378.084  1.210e-04
 378.457  1.267e-04
 378.831  1.267e-04
 379.204  1.067e-04
 379.577  1.095e-04
 379.951  1.090e-04
 380.324  1.036e-04
 380.697  1.107e-04
 381.070  1.030e-04
 381.443  1.027e-04
 381.816  9.178e-05
 382.189  1.003e-04
 382.562  9.532e-05
 382.935  9.786e-05
 383.308  7.762e-05
 383.681  9.506e-05
 384.054  9.385e-05
 384.426  1.041e-04
 384.799  8.819e-05
 385.172  7.736e-05
 385.544  7.992e-05
 385.917  8.319e-05
 386.290  8.121e-05
 386.662  6.781e-05
 387.034  6.939e-05
 387.407  6.958e-05
 387.779  8.364e-05
 388.152  7.748e-05
 388.524  8.282e-05
 388.896  7.972e-05
 389.268  7.009e-05
 389.640  6.362e-05
 390.013  5.853e-05
 390.385  5.791e-05
 390.757  5.772e-05
 391.129  5.975e-05
 391.500  6.257e-05
 391.872  6.093e-05
 392.244  6.217e-05
 392.616  6.036e-05
 392.988  5.833e-05
 393.360  4.703e-05
 393.731  4.592e-05
 394.103  4.563e-05
 394.474  5.418e-05
 394.846  5.283e-05
 395.217  5.505e-05
 395.589  5.137e-05
 395.960  5.648e-05
 396.332  5.758e-05
 396.703  6.048e-05
 397.074  5.602e-05
 397.446  5.242e-05
 397.817  5.018e-05
 398.188  5.570e-05
 398.559  5.368e-05
 398.930  5.224e-05
 399.301  4.933e-05
 399.672  5.464e-05
 400.043  5.361e-05
 400.414  5.132e-05
 400.785  4.834e-05
 401.156  4.745e-05
 401.526  5.583e-05
 401.897  5.598e-05
 402.268  5.780e-05
 402.638  4.734e-05
 403.009  4.163e-05
 403.380  3.449e-05
 403.750  3.217e-05
 404.121  3.216e-05
 404.491  3.656e-05
 404.861  4.076e-05
 405.232  4.150e-05
 405.602  3.936e-05
 405.972  3.388e-05
 406.342  3.027e-05
 406.713  2.593e-05
 407.083  3.084e-05
 407.453  3.634e-05
 407.823  4.176e-05
 408.193  4.361e-05
 408.563  4.349e-05
 408.933  4.356e-05
 409.302  4.384e-05
 409.672  3.875e-05
 410.042  3.492e-05
 410.412  2.851e-05
 410.781  3.043e-05
 411.151  3.322e-05
 411.521  3.274e-05
 411.890  3.022e-05
 412.260  2.856e-05
 412.629  2.949e-05
 412.999  3.128e-05
 413.368  3.374e-05
 413.737  3.807e-05
 414.107  3.914e-05
 414.476  3.764e-05
 414.845  3.053e-05
 415.214  3.066e-05
 415.583  2.625e-05
 415.952  2.968e-05
 416.322  2.822e-05
 416.691  2.801e-05
 417.059  2.667e-05
 417.428  2.722e-05
 417.797  3.043e-05
 418.166  3.065e-05
 418.535  2.513e-05
 418.904  2.868e-05
 419.272  2.679e-05
 419.641  3.096e-05
 420.009  2.575e-05
 420.378  2.853e-05
 420.747  2.597e-05
 421.115  2.766e-05
 421.483  2.301e-05
 421.852  2.294e-05
 422.220  2.042e-05
 422.588  2.522e-05
 422.957  2.580e-05
 423.325  2.444e-05
 423.693  2.449e-05
 424.061  2.339e-05
 424.429  2.436e-05
 424.797  2.076e-05
 425.165  2.069e-05
 425.533  2.016e-05
 425.901  2.262e-05
 426.269  2.407e-05
 426.637  2.560e-05
 427.005  2.352e-05
 427.372  2.048e-05
 427.740  2.068e-05
 428.108  2.298e-05
 428.475  2.554e-05
 428.843  2.309e-05
 429.210  1.950e-05
 429.578  1.801e-05
 429.945  2.112e-05
 430.312  2.172e-05
 430.680  2.346e-05
 431.047  2.191e-05
 431.414  2.203e-05
 431.782  2.001e-05
 432.149  1.807e-05
 432.516  1.694e-05
 432.883  1.625e-05
 433.250  1.762e-05
 433.617  1.874e-05
 433.984  2.023e-05
 434.351  1.888e-05
 434.718  1.637e-05
 435.084  1.429e-05
 435.451  1.735e-05
 435.818  2.220e-05
 436.184  2.185e-05
 436.551  1.899e-05
 436.918  1.573e-05
 437.284  1.776e-05
 437.651  1.823e-05
 438.017  1.810e-05
 438.384  1.941e-05
 438.750  1.999e-05
 439.116  2.116e-05
 439.483  1.883e-05
 439.849  1.814e-05
 440.215  1.794e-05
 440.581  1.749e-05
 440.947  1.661e-05
 441.313  1.469e-05
 441.679  1.474e-05
 442.045  1.562e-05
 442.411  1.594e-05
 442.777  1.474e-05
 443.143  1.472e-05
 443.509  1.608e-05
 443.874  1.651e-05
 444.240  1.616e-05
 444.606  1.435e-05
 444.971  1.499e-05
 445.337  1.386e-05
 445.703  1.545e-05
 446.068  1.450e-05
 446.433  1.581e-05
 446.799  1.539e-05
 447.164  1.709e-05
 447.530  1.690e-05
 447.895  1.581e-05
 448.260  1.480e-05
 448.625  1.439e-05
 448.990  1.519e-05
 449.355  1.553e-05
 449.720  1.592e-05
 450.085  1.575e-05
 450.450  1.519e-05
 450.815  1.213e-05
 451.180  1.314e-05
 451.545  1.228e-05
 451.910  1.466e-05
 452.275  1.345e-05
 452.639  1.364e-05
 453.004  1.550e-05
 453.369  1.466e-05
 453.733  1.468e-05
 454.098  1.183e-05
 454.462  1.298e-05
 454.826  1.479e-05
 455.191  1.491e-05
 455.555  1.421e-05
 455.919  1.429e-05
 456.284  1.408e-05
 456.648  1.285e-05
 457.012  1.198e-05
 457.376  1.317e-05
 457.740  1.481e-05
 458.104  1.521e-05
 458.468  1.367e-05
 458.832  1.316e-05
 459.196  1.265e-05
 459.560  1.403e-05
 459.924  1.480e-05
 460.288  1.465e-05
 460.651  1.472e-05
 461.015  1.386e-05
 461.379  1.380e-05
 461.742  1.385e-05
 462.106  1.398e-05
 462.469  1.351e-05
 462.833  1.395e-05
 463.196  1.352e-05
 463.559  1.338e-05
 463.923  1.314e-05
 464.286  1.437e-05
 464.649  1.520e-05
 465.012  1.480e-05
 465.376  1.431e-05
 465.739  1.385e-05
 466.102  1.382e-05
 466.465  1.370e-05
 466.828  1.307e-05
 467.191  1.229e-05
 467.553  1.116e-05
 467.916  1.146e-05
 468.279  1.174e-05
 468.642  1.195e-05
 469.004  1.230e-05
 469.367  1.242e-05
 469.730  1.292e-05
 470.092  1.207e-05
 470.455  1.052e-05
 470.817  9.507e-06
 471.180  9.729e-06
 471.542  1.088e-05
 471.904  1.178e-05
 472.267  1.110e-05
 472.629  1.089e-05
 472.991  1.035e-05
 473.353  1.085e-05
 473.715  1.067e-05
 474.078  1.114e-05
 474.440  1.122e-05
 474.802  1.143e-05
 475.163  1.161e-05
 475.525  1.151e-05
 475.887  1.089e-05
 476.249  1.092e-05
 476.611  1.044e-05
 476.972  1.037e-05
 477.334  9.697e-06
 477.696  9.694e-06
 478.057  1.011e-05
 478.419  9.607e-06
 478.780  9.661e-06
 479.142  9.434e-06
 479.503  9.287e-06
 479.865  8.547e-06
 480.226  8.644e-06
 480.587  9.505e-06
 480.948  9.926e-06
 481.310  9.805e-06
 481.671  9.490e-06
 482.032  9.677e-06
 482.393  9.777e-06
 482.754  9.415e-06
 483.115  9.072e-06
 483.476  9.031e-06
 483.837  9.142e-06
 484.197  9.423e-06
 484.558  9.045e-06
 484.919  9.027e-06
 485.280  9.009e-06
 485.640  9.434e-06
 486.001  9.594e-06
 486.361  9.550e-06
 486.722  9.522e-06
 487.082  9.168e-06
 487.443  9.255e-06
 487.803  9.584e-06
 488.163  9.814e-06
 488.524  9.647e-06
 488.884  9.402e-06
 489.244  9.582e-06
 489.604  9.680e-06
 489.964  9.578e-06
 490.324  9.674e-06
 490.684  1.024e-05
 491.044  1.004e-05
 491.404  9.712e-06
 491.764  9.584e-06
 492.124  9.773e-06
 492.484  1.007e-05
 492.843  9.712e-06
 493.203  9.431e-06
 493.563  9.298e-06
 493.922  9.374e-06
 494.282  9.486e-06
 494.642  9.565e-06
 495.001  9.369e-06
 495.360  9.552e-06
 495.720  9.604e-06
 496.079  9.588e-06
 496.438  9.896e-06
 496.798  9.669e-06
 497.157  1.005e-05
 497.516  9.908e-06
 497.875  1.026e-05
 498.234  1.008e-05
 498.593  9.890e-06
 498.952  9.641e-06
 499.311  1.005e-05
 499.670  1.007e-05
 500.029  1.009e-05
 500.388  9.775e-06
 500.746  1.014e-05
 501.105  1.050e-05
 501.464  1.073e-05
 501.822  1.056e-05
 502.181  1.034e-05
 502.539  1.061e-05
 502.898  1.088e-05
 503.256  1.094e-05
 503.615  1.052e-05
 503.973  9.936e-06
 504.331  1.008e-05
 504.690  1.037e-05
 505.048  1.103e-05
 505.406  1.119e-05
 505.764  1.125e-05
 506.122  1.114e-05
 506.480  1.141e-05
 506.838  1.121e-05
 507.196  1.144e-05
 507.554  1.129e-05
 507.912  1.149e-05
 508.270  1.148e-05
 508.627  1.121e-05
 508.985  1.125e-05
 509.343  1.142e-05
 509.700  1.170e-05
 510.058  1.170e-05
 510.415  1.174e-05
 510.773  1.187e-05
 511.130  1.179e-05
 511.488  1.191e-05
 511.845  1.185e-05
 512.202  1.224e-05
 512.560  1.269e-05
 512.917  1.285e-05
 513.274  1.292e-05
 513.631  1.262e-05
 513.988  1.265e-05
 514.345  1.266e-05
 514.702  1.253e-05
 515.059  1.264e-05
 515.416  1.276e-05
 515.773  1.301e-05
 516.130  1.347e-05
 516.486  1.353e-05
 516.843  1.359e-05
 517.200  1.308e-05
 517.556  1.322e-05
 517.913  1.355e-05
 518.269  1.416e-05
 518.626  1.432e-05
 518.982  1.423e-05
 519.339  1.429e-05
 519.695  1.428e-05
 520.051  1.429e-05
 520.408  1.424e-05
 520.764  1.453e-05
 521.120  1.481e-05
 521.476  1.494e-05
 521.832  1.473e-05
 522.188  1.459e-05
 522.544  1.474e-05
 522.900  1.523e-05
 523.256  1.524e-05
 523.612  1.551e-05
 523.968  1.562e-05
 524.323  1.605e-05
 524.679  1.608e-05
 525.035  1.601e-05
 525.390  1.611e-05
 525.746  1.599e-05
 526.102  1.619e-05
 526.457  1.643e-05
 526.812  1.648e-05
 527.168  1.644e-05
 527.523  1.644e-05
 527.878  1.696e-05
 528.234  1.745e-05
 528.589  1.745e-05
 528.944  1.727e-05
 529.299  1.737e-05
 529.654  1.755e-05
 530.009  1.778e-05
 530.364  1.783e-05
 530.719  1.810e-05
 531.074  1.853e-05
 531.429  1.855e-05
 531.784  1.882e-05
 532.138  1.852e-05
 532.493  1.867e-05
 532.848  1.885e-05
 533.202  1.900e-05
 533.557  1.891e-05
 533.911  1.867e-05
 534.266  1.879e-05
 534.620  1.931e-05
 534.975  1.943e-05
 535.329  1.945e-05
 535.683  1.936e-05
 536.038  1.956e-05
 536.392  1.977e-05
 536.746  2.003e-05
 537.100  2.027e-05
 537.454  2.073e-05
 537.808  2.061e-05
 538.162  2.118e-05
 538.516  2.102e-05
 538.870  2.159e-05
 539.224  2.137e-05
 539.577  2.158e-05
 539.931  2.174e-05
 540.285  2.193e-05
 540.639  2.251e-05
 540.992  2.275e-05
 541.346  2.312e-05
 541.699  2.330e-05
 542.053  2.323e-05
 542.406  2.317e-05
 542.759  2.323e-05
 543.113  2.371e-05
 543.466  2.439e-05
 543.819  2.478e-05
 544.172  2.504e-05
 544.526  2.513e-05
 544.879  2.546e-05
 545.232  2.595e-05
 545.585  2.630e-05
 545.938  2.642e-05
 546.291  2.631e-05
 546.643  2.667e-05
 546.996  2.715e-05
 547.349  2.777e-05
 547.702  2.777e-05
 548.054  2.797e-05
 548.407  2.848e-05
 548.760  2.930e-05
 549.112  2.976e-05
 549.465  2.992e-05
 549.817  2.987e-05
 550.169  2.989e-05
 550.522  3.022e-05
 550.874  3.068e-05
 551.226  3.155e-05
 551.579  3.212e-05
 551.931  3.282e-05
 552.283  3.322e-05
 552.635  3.351e-05
 552.987  3.365e-05
 553.339  3.414e-05
 553.691  3.461e-05
 554.043  3.539e-05
 554.395  3.562e-05
 554.746  3.629e-05
 555.098  3.702e-05
 555.450  3.788e-05
 555.802  3.846e-05
 556.153  3.879e-05
 556.505  3.951e-05
 556.856  3.998e-05
 557.208  4.062e-05
 557.559  4.075e-05
 557.911  4.133e-05
 558.262  4.202e-05
 558.613  4.306e-05
 558.964  4.370e-05
 559.316  4.389e-05
 559.667  4.426e-05
 560.018  4.487e-05
 560.369  4.593e-05
 560.720  4.649e-05
 561.071  4.713e-05
 561.422  4.779e-05
 561.773  4.880e-05
 562.124  4.979e-05
 562.474  5.060e-05
 562.825  5.182e-05
 563.176  5.259e-05
 563.526  5.330e-05
 563.877  5.361e-05
 564.228  5.438e-05
 564.578  5.499e-05
 564.928  5.580e-05
 565.279  5.637e-05
 565.629  5.712e-05
 565.980  5.815e-05
 566.330  5.911e-05
 566.680  6.015e-05
 567.030  6.052e-05
 567.380  6.142e-05
 567.730  6.204e-05
 568.080  6.310e-05
 568.430  6.419e-05
 568.780  6.542e-05
 569.130  6.659e-05
 569.480  6.752e-05
 569.830  6.830e-05
 570.180  6.930e-05
 570.529  6.997e-05
 570.879  7.111e-05
 571.229  7.194e-05
 571.578  7.291e-05
 571.928  7.355e-05
 572.277  7.472e-05
 572.627  7.605e-05
 572.976  7.757e-05
 573.325  7.814e-05
 573.675  7.924e-05
 574.024  8.031e-05
 574.373  8.181e-05
 574.722  8.309e-05
 575.071  8.462e-05
 575.420  8.611e-05
 575.769  8.702e-05
 576.118  8.754e-05
 576.467  8.840e-05
 576.816  8.945e-05
 577.165  9.067e-05
 577.514  9.204e-05
 577.863  9.395e-05
 578.211  9.518e-05
 578.560  9.687e-05
 578.908  9.766e-05
 579.257  9.916e-05
 579.606  9.982e-05
 579.954  1.010e-04
 580.302  1.020e-04
 580.651  1.031e-04
 580.999  1.040e-04
 581.347  1.053e-04
 581.696  1.066e-04
 582.044  1.083e-04
 582.392  1.102e-04
 582.740  1.114e-04
 583.088  1.125e-04
 583.436  1.135e-04
 583.784  1.154e-04
 584.132  1.171e-04
 584.480  1.181e-04
 584.827  1.192e-04
 585.175  1.205e-04
 585.523  1.220e-04
 585.870  1.233e-04
 586.218  1.249e-04
 586.566  1.265e-04
 586.913  1.279e-04
 587.261  1.288e-04
 587.608  1.306e-04
 587.955  1.321e-04
 588.303  1.343e-04
 588.650  1.349e-04
 588.997  1.361e-04
 589.344  1.371e-04
 589.692  1.391e-04
 590.039  1.408e-04
 590.386  1.419e-04
 590.733  1.430e-04
 591.080  1.444e-04
 591.427  1.459e-04
 591.773  1.475e-04
 592.120  1.489e-04
 592.467  1.508e-04
 592.814  1.523e-04
 593.160  1.540e-04
 593.507  1.553e-04
 593.854  1.565e-04
 594.200  1.578e-04
 594.547  1.593e-04
 594.893  1.612e-04
 595.239  1.622e-04
 595.586  1.635e-04
 595.932  1.644e-04
 596.278  1.663e-04
 596.624  1.676e-04
 596.971  1.691e-04
 597.317  1.701e-04
 597.663  1.713e-04
 598.009  1.722e-04
 598.355  1.741e-04
 598.701  1.756e-04
 599.046  1.775e-04
 599.392  1.784e-04
 599.738  1.797e-04
 600.084  1.815e-04
 600.429  1.830e-04
 600.775  1.845e-04
 601.121  1.852e-04
 601.466  1.861e-04
 601.812  1.877e-04
 602.157  1.883e-04
 602.503  1.894e-04
 602.848  1.900e-04
 603.193  1.922e-04
 603.538  1.938e-04
 603.884  1.949e-04
 604.229  1.955e-04
 604.574  1.970e-04
 604.919  1.985e-04
 605.264  2.003e-04
 605.609  2.019e-04
 605.954  2.036e-04
 606.299  2.043e-04
 606.644  2.050e-04
 606.988  2.056e-04
 607.333  2.071e-04
 607.678  2.087e-04
 608.022  2.102e-04
 608.367  2.115e-04
 608.712  2.124e-04
 609.056  2.133e-04
 609.400  2.147e-04
 609.745  2.160e-04
 610.089  2.173e-04
 610.434  2.172e-04
 610.778  2.183e-04
 611.122  2.192e-04
 611.466  2.216e-04
 611.810  2.219e-04
 612.154  2.235e-04
 612.498  2.244e-04
 612.842  2.258e-04
 613.186  2.264e-04
 613.530  2.270e-04
 613.874  2.281e-04
 614.218  2.294e-04
 614.561  2.309e-04
 614.905  2.317e-04
 615.249  2.322e-04
 615.592  2.326e-04
 615.936  2.336e-04
 616.279  2.348e-04
 616.623  2.366e-04
 616.966  2.385e-04
 617.310  2.402e-04
 617.653  2.410e-04
 617.996  2.418e-04
 618.339  2.421e-04
 618.683  2.424e-04
 619.026  2.433e-04
 619.369  2.439e-04
 619.712  2.454e-04
 620.055  2.455e-04
 620.398  2.471e-04
 620.741  2.475e-04
 621.083  2.489e-04
 621.426  2.498e-04
 621.769  2.504e-04
 622.112  2.511e-04
 622.454  2.514e-04
 622.797  2.532e-04
 623.139  2.545e-04
 623.482  2.559e-04
 623.824  2.568e-04
 624.167  2.577e-04
 624.509  2.587e-04
 624.851  2.598e-04
 625.194  2.610e-04
 625.536  2.617e-04
 625.878  2.622e-04
 626.220  2.629e-04
 626.562  2.643e-04
 626.904  2.651e-04
 627.246  2.658e-04
 627.588  2.661e-04
 627.930  2.668e-04
 628.272  2.681e-04
 628.614  2.697e-04
 628.955  2.716e-04
 629.297  2.722e-04
 629.639  2.725e-04
 629.980  2.735e-04
 630.322  2.747e-04
 630.663  2.759e-04
 631.005  2.762e-04
 631.346  2.766e-04
 631.688  2.778e-04
 632.029  2.788e-04
 632.370  2.801e-04
 632.711  2.806e-04
 633.052  2.813e-04
 633.394  2.825e-04
 633.735  2.834e-04
 634.076  2.843e-04
 634.417  2.858e-04
 634.758  2.870e-04
 635.098  2.880e-04
 635.439  2.883e-04
 635.780  2.886e-04
 636.121  2.905e-04
 636.461  2.918e-04
 636.802  2.934e-04
 637.143  2.934e-04
 637.483  2.940e-04
 637.824  2.947e-04
 638.164  2.958e-04
 638.505  2.958e-04
 638.845  2.974e-04
 639.185  2.983e-04
 639.525  2.993e-04
 639.866  2.990e-04
 640.206  2.996e-04
 640.546  3.010e-04
 640.886  3.026e-04
 641.226  3.022e-04
 641.566  3.024e-04
 641.906  3.028e-04
 642.246  3.043e-04
 642.585  3.044e-04
 642.925  3.051e-04
 643.265  3.055e-04
 643.605  3.070e-04
 643.944  3.062e-04
 644.284  3.078e-04
 644.623  3.078e-04
 644.963  3.092e-04
 645.302  3.083e-04
 645.642  3.092e-04
 645.981  3.100e-04
 646.320  3.115e-04
 646.660  3.119e-04
 646.999  3.124e-04
 647.338  3.129e-04
 647.677  3.135e-04
 648.016  3.144e-04
 648.355  3.151e-04
 648.694  3.163e-04
 649.033  3.172e-04
 649.372  3.184e-04
 649.711  3.190e-04
 650.049  3.199e-04
 650.388  3.205e-04
 650.727  3.217e-04
 651.065  3.225e-04
 651.404  3.226e-04
 651.742  3.231e-04
 652.081  3.228e-04
 652.419  3.236e-04
 652.758  3.238e-04
 653.096  3.246e-04
 653.434  3.253e-04
 653.772  3.268e-04
 654.111  3.275e-04
 654.449  3.283e-04
 654.787  3.292e-04
 655.125  3.300e-04
 655.463  3.308e-04
 655.801  3.308e-04
 656.139  3.319e-04
 656.476  3.318e-04
 656.814  3.315e-04
 657.152  3.313e-04
 657.490  3.316e-04
 657.827  3.320e-04
 658.165  3.318e-04
 658.503  3.321e-04
 658.840  3.325e-04
 659.177  3.330e-04
 659.515  3.330e-04
 659.852  3.333e-04
 660.190  3.333e-04
 660.527  3.330e-04
 660.864  3.330e-04
 661.201  3.327e-04
 661.538  3.329e-04
 661.875  3.324e-04
 662.212  3.320e-04
 662.549  3.320e-04
 662.886  3.320e-04
 663.223  3.319e-04
 663.560  3.318e-04
 663.897  3.311e-04
 664.233  3.308e-04
 664.570  3.295e-04
 664.907  3.293e-04
 665.243  3.292e-04
 665.580  3.301e-04
 665.916  3.299e-04
 666.253  3.296e-04
 666.589  3.285e-04
 666.925  3.278e-04
 667.262  3.270e-04
 667.598  3.272e-04
 667.934  3.274e-04
 668.270  3.277e-04
 668.606  3.281e-04
 668.942  3.282e-04
 669.278  3.282e-04
 669.614  3.282e-04
 669.950  3.282e-04
 670.286  3.291e-04
 670.622  3.292e-04
 670.958  3.300e-04
 671.293  3.309e-04
 671.629  3.317e-04
 671.965  3.316e-04
 672.300  3.315e-04
 672.636  3.317e-04
 672.971  3.329e-04
 673.307  3.328e-04
 673.642  3.340e-04
 673.977  3.354e-04
 674.313  3.375e-04
 674.648  3.380e-04
 674.983  3.387e-04
 675.318  3.398e-04
 675.653  3.419e-04
 675.988  3.434e-04
 676.323  3.443e-04
 676.658  3.462e-04
 676.993  3.480e-04
 677.328  3.495e-04
 677.663  3.507e-04
 677.997  3.531e-04
 678.332  3.556e-04
 678.667  3.575e-04
 679.001  3.594e-04
 679.336  3.618e-04
 679.670  3.653e-04
 680.005  3.684e-04
 680.339  3.711e-04
 680.673  3.730e-04
 681.008  3.760e-04
 681.342  3.793e-04
 681.676  3.828e-04
 682.010  3.859e-04
 682.344  3.897e-04
 682.678  3.925e-04
 683.012  3.963e-04
 683.346  4.009e-04
 683.680  4.058e-04
 684.014  4.098e-04
 684.348  4.129e-04
 684.682  4.178e-04
 685.015  4.226e-04
 685.349  4.270e-04
 685.682  4.317e-04
 686.016  4.368e-04
 686.350  4.415e-04
 686.683  4.465e-04
 687.016  4.508e-04
 687.350  4.566e-04
 687.683  4.603e-04
 688.016  4.665e-04
 688.350  4.714e-04
 688.683  4.772e-04
 689.016  4.822e-04
 689.349  4.879e-04
 689.682  4.931e-04
 690.015  4.963e-04
 690.348  5.008e-04
 690.681  5.050e-04
 691.013  5.114e-04
 691.346  5.160e-04
 691.679  5.212e-04
 692.012  5.254e-04
 692.344  5.293e-04
 692.677  5.339e-04
 693.009  5.381e-04
 693.342  5.428e-04
 693.674  5.470e-04
 694.007  5.501e-04
 694.339  5.539e-04
 694.671  5.583e-04
 695.003  5.629e-04
 695.336  5.688e-04
 695.668  5.725e-04
 696.000  5.761e-04
 696.332  5.784e-04
 696.664  5.821e-04
 696.996  5.865e-04
 697.328  5.906e-04
 697.659  5.941e-04
 697.991  5.973e-04
 698.323  6.007e-04
 698.655  6.038e-04
 698.986  6.080e-04
 699.318  6.113e-04
 699.649  6.150e-04
 699.981  6.179e-04
 700.312  6.211e-04
 700.644  6.246e-04
 700.975  6.288e-04
 701.306  6.326e-04
 701.638  6.367e-04
 701.969  6.379e-04
 702.300  6.403e-04
 702.631  6.409e-04
 702.962  6.441e-04
 703.293  6.463e-04
 703.624  6.512e-04
 703.955  6.551e-04
 704.286  6.578e-04
 704.617  6.600e-04
 704.947  6.632e-04
 705.278  6.674e-04
 705.609  6.687e-04
 705.939  6.720e-04
 706.270  6.734e-04
 706.600  6.778e-04
 706.931  6.783e-04
 707.261  6.825e-04
 707.592  6.860e-04
 707.922  6.883e-04
 708.252  6.902e-04
 708.582  6.922e-04
 708.912  6.969e-04
 709.243  7.003e-04
 709.573  7.043e-04
 709.903  7.061e-04
 710.233  7.103e-04
 710.563  7.126e-04
 710.892  7.154e-04
 711.222  7.169e-04
 711.552  7.192e-04
 711.882  7.222e-04
 712.211  7.258e-04
 712.541  7.274e-04
 712.870  7.312e-04
 713.200  7.331e-04
 713.529  7.361e-04
 713.859  7.376e-04
 714.188  7.406e-04
 714.518  7.440e-04
 714.847  7.470e-04
 715.176  7.497e-04
 715.505  7.509e-04
 715.834  7.541e-04
 716.163  7.563e-04
 716.492  7.622e-04
 716.821  7.628e-04
 717.150  7.650e-04
 717.479  7.641e-04
 717.808  7.674e-04
 718.137  7.689e-04
 718.465  7.739e-04
 718.794  7.772e-04
 719.123  7.814e-04
 719.451  7.835e-04
 719.780  7.857e-04
 720.108  7.887e-04
 720.437  7.917e-04
 720.765  7.935e-04
 721.093  7.970e-04
 721.422  7.992e-04
 721.750  8.037e-04
 722.078  8.032e-04
 722.406  8.064e-04
 722.734  8.093e-04
 723.062  8.141e-04
 723.390  8.173e-04
 723.718  8.204e-04
 724.046  8.236e-04
 724.374  8.256e-04
 724.702  8.273e-04
 725.029  8.304e-04
 725.357  8.326e-04
 725.685  8.363e-04
 726.012  8.394e-04
 726.340  8.418e-04
 726.667  8.445e-04
 726.995  8.468e-04
 727.322  8.491e-04
 727.649  8.509e-04
 727.977  8.551e-04
 728.304  8.590e-04
 728.631  8.644e-04
 728.958  8.643e-04
 729.285  8.676e-04
 729.612  8.673e-04
 729.939  8.725e-04
 730.266  8.752e-04
 730.593  8.783e-04
 730.920  8.785e-04
 731.246  8.818e-04
 731.573  8.858e-04
 731.900  8.891e-04
 732.226  8.915e-04
 732.553  8.927e-04
 732.880  8.964e-04
 733.206  9.001e-04
 733.532  9.034e-04
 733.859  9.082e-04
 734.185  9.094e-04
 734.511  9.156e-04
 734.838  9.179e-04
 735.164  9.237e-04
 735.490  9.243e-04
 735.816  9.278e-04
 736.142  9.283e-04
 736.468  9.331e-04
 736.794  9.369e-04
 737.120  9.403e-04
 737.446  9.419e-04
 737.771  9.423e-04
 738.097  9.434e-04
 738.423  9.451e-04
 738.748  9.496e-04
 739.074  9.533e-04
 739.399  9.587e-04
 739.725  9.627e-04
 740.050  9.647e-04
 740.376  9.678e-04
 740.701  9.661e-04
 741.026  9.715e-04
 741.352  9.725e-04
 741.677  9.788e-04
 742.002  9.808e-04
 742.327  9.841e-04
 742.652  9.890e-04
 742.977  9.957e-04
 743.302  1.001e-03
 743.627  1.004e-03
 743.951  1.006e-03
 744.276  1.009e-03
 744.601  1.011e-03
 744.926  1.013e-03
 745.250  1.015e-03
 745.575  1.017e-03
 745.899  1.020e-03
 746.224  1.024e-03
 746.548  1.029e-03
 746.873  1.033e-03
 747.197  1.038e-03
 747.521  1.041e-03
 747.845  1.043e-03
 748.170  1.046e-03
 748.494  1.050e-03
 748.818  1.054e-03
 749.142  1.057e-03
 749.466  1.062e-03
 749.790  1.063e-03
 750.113  1.064e-03
 750.437  1.065e-03
 750.761  1.070e-03
 751.085  1.075e-03
 751.408  1.077e-03
 751.732  1.081e-03
 752.056  1.085e-03
 752.379  1.087e-03
 752.702  1.089e-03
 753.026  1.092e-03
 753.349  1.096e-03
 753.673  1.101e-03
 753.996  1.105e-03
 754.319  1.108e-03
 754.642  1.107e-03
 754.965  1.110e-03
 755.288  1.115e-03
 755.611  1.120e-03
 755.934  1.123e-03
 756.257  1.126e-03
 756.580  1.129e-03
 756.903  1.132e-03
 757.226  1.135e-03
 757.548  1.141e-03
 757.871  1.145e-03
 758.194  1.151e-03
 758.516  1.153e-03
 758.839  1.157e-03
 759.161  1.158e-03
 759.483  1.160e-03
 759.806  1.164e-03
 760.128  1.169e-03
 760.450  1.172e-03
 760.772  1.173e-03
 761.095  1.173e-03
 761.417  1.177e-03
 761.739  1.181e-03
 762.061  1.185e-03
 762.383  1.189e-03
 762.705  1.193e-03
 763.026  1.198e-03
 763.348  1.201e-03
 763.670  1.203e-03
 763.992  1.202e-03
 764.313  1.205e-03
 764.635  1.209e-03
 764.956  1.216e-03
 765.278  1.221e-03
 765.599  1.224e-03
 765.921  1.226e-03
 766.242  1.232e-03
 766.563  1.232e-03
 766.884  1.236e-03
 767.206  1.235e-03
 767.527  1.241e-03
 767.848  1.242e-03
 768.169  1.244e-03
 768.490  1.244e-03
 768.811  1.245e-03
 769.132  1.247e-03
 769.452  1.250e-03
 769.773  1.258e-03
 770.094  1.266e-03
 770.415  1.272e-03
 770.735  1.274e-03
 771.056  1.274e-03
 771.376  1.277e-03
 771.697  1.279e-03
 772.017  1.280e-03
 772.338  1.282e-03
 772.658  1.285e-03
 772.978  1.290e-03
 773.298  1.296e-03
 773.619  1.297e-03
 773.939  1.299e-03
 774.259  1.300e-03
 774.579  1.305e-03
 774.899  1.312e-03
 775.219  1.316e-03
 775.538  1.321e-03
 775.858  1.319e-03
 776.178  1.321e-03
 776.498  1.321e-03
 776.817  1.324e-03
 777.137  1.330e-03
 777.456  1.333e-03
 777.776  1.337e-03
 778.095  1.340e-03
 778.415  1.346e-03
 778.734  1.352e-03
 779.053  1.353e-03
 779.373  1.357e-03
 779.692  1.361e-03
 780.011  1.363e-03
 780.330  1.363e-03
 780.649  1.365e-03
 780.968  1.369e-03
 781.287  1.371e-03
 781.606  1.375e-03
 781.925  1.378e-03
 782.244  1.385e-03
 782.562  1.385e-03
 782.881  1.388e-03
 783.200  1.392e-03
 783.518  1.395e-03
 783.837  1.397e-03
 784.155  1.400e-03
 784.474  1.405e-03
 784.792  1.409e-03
 785.110  1.412e-03
 785.429  1.414e-03
 785.747  1.420e-03
 786.065  1.423e-03
 786.383  1.426e-03
 786.701  1.426e-03
 787.019  1.429e-03
 787.337  1.436e-03
 787.655  1.438e-03
 787.973  1.439e-03
 788.291  1.438e-03
 788.608  1.440e-03
 788.926  1.444e-03
 789.244  1.449e-03
 789.561  1.457e-03
 789.879  1.458e-03
 790.196  1.459e-03
 790.514  1.460e-03
 790.831  1.464e-03
 791.149  1.467e-03
 791.466  1.472e-03
 791.783  1.474e-03
 792.100  1.477e-03
 792.418  1.480e-03
 792.735  1.485e-03
 793.052  1.489e-03
 793.369  1.491e-03
 793.686  1.496e-03
 794.002  1.502e-03
 794.319  1.504e-03
 794.636  1.506e-03
 794.953  1.507e-03
 795.269  1.512e-03
 795.586  1.514e-03
 795.903  1.517e-03
 796.219  1.519e-03
 796.536  1.520e-03
 796.852  1.523e-03
 797.168  1.529e-03
 797.485  1.537e-03
 797.801  1.541e-03
 798.117  1.544e-03
 798.433  1.546e-03
 798.750  1.551e-03
 799.066  1.551e-03
 799.382  1.549e-03
 799.698  1.553e-03
 800.013  1.556e-03
 800.329  1.564e-03
 800.645  1.560e-03
 800.961  1.567e-03
 801.277  1.572e-03
 801.592  1.581e-03
 801.908  1.582e-03
 802.223  1.584e-03
 802.539  1.589e-03
 802.854  1.590e-03
 803.170  1.593e-03
 803.485  1.596e-03
 803.800  1.602e-03
 804.116  1.602e-03
 804.431  1.604e-03
 804.746  1.603e-03
 805.061  1.609e-03
 805.376  1.610e-03
 805.691  1.614e-03
 806.006  1.619e-03
 806.321  1.622e-03
 806.636  1.627e-03
 806.950  1.630e-03
 807.265  1.638e-03
 807.580  1.641e-03
 807.894  1.644e-03
 808.209  1.645e-03
 808.523  1.645e-03
 808.838  1.647e-03
 809.152  1.650e-03
 809.467  1.657e-03
 809.781  1.659e-03
 810.095  1.660e-03
 810.409  1.659e-03
 810.724  1.666e-03
 811.038  1.672e-03
 811.352  1.680e-03
 811.666  1.678e-03
 811.980  1.680e-03
 812.294  1.677e-03
 812.607  1.684e-03
 812.921  1.691e-03
 813.235  1.698e-03
 813.549  1.700e-03
 813.862  1.699e-03
 814.176  1.704e-03
 814.489  1.708e-03
 814.803  1.715e-03
 815.116  1.718e-03
 815.430  1.722e-03
 815.743  1.724e-03
 816.056  1.721e-03
 816.369  1.729e-03
 816.683  1.726e-03
 816.996  1.733e-03
 817.309  1.736e-03
 817.622  1.745e-03
 817.935  1.750e-03
 818.248  1.749e-03
 818.561  1.750e-03
 818.873  1.748e-03
 819.186  1.753e-03
 819.499  1.759e-03
 819.811  1.763e-03
 820.124  1.767e-03
 820.437  1.769e-03
 820.749  1.780e-03
 821.061  1.786e-03
 821.374  1.794e-03
 821.686  1.791e-03
 821.998  1.793e-03
 822.311  1.791e-03
 822.623  1.799e-03
 822.935  1.799e-03
 823.247  1.803e-03
 823.559  1.801e-03
 823.871  1.802e-03
 824.183  1.803e-03
 824.495  1.809e-03
 824.807  1.817e-03
 825.118  1.824e-03
 825.430  1.823e-03
 825.742  1.827e-03
 826.053  1.827e-03
 826.365  1.833e-03
 826.676  1.834e-03
 826.988  1.840e-03
 827.299  1.845e-03
 827.611  1.851e-03
 827.922  1.853e-03
 828.233  1.859e-03
 828.544  1.860e-03
 828.856  1.860e-03
 829.167  1.859e-03
 829.478  1.861e-03
 829.789  1.865e-03
 830.100  1.871e-03
 830.410  1.875e-03
 830.721  1.879e-03
 831.032  1.882e-03
 831.343  1.888e-03
 831.653  1.891e-03
 831.964  1.894e-03
 832.275  1.894e-03
 832.585  1.897e-03
 832.896  1.898e-03
 833.206  1.899e-03
 833.516  1.904e-03
 833.827  1.912e-03
 834.137  1.915e-03
 834.447  1.916e-03
 834.757  1.916e-03
 835.067  1.921e-03
 835.377  1.928e-03
 835.687  1.932e-03
 835.997  1.932e-03
 836.307  1.936e-03
 836.617  1.939e-03
 836.927  1.944e-03
 837.236  1.944e-03
 837.546  1.941e-03
 837.856  1.944e-03
 838.165  1.946e-03
 838.475  1.954e-03
 838.784  1.955e-03
 839.094  1.958e-03
 839.403  1.958e-03
 839.712  1.961e-03
 840.022  1.970e-03
 840.331  1.977e-03
 840.640  1.976e-03
 840.949  1.974e-03
 841.258  1.977e-03
 841.567  1.984e-03
 841.876  1.987e-03
 842.185  1.993e-03
 842.494  1.996e-03
 842.802  1.997e-03
 843.111  1.996e-03
 843.420  1.995e-03
 843.728  2.000e-03
 844.037  2.003e-03
 844.346  2.010e-03
 844.654  2.015e-03
 844.962  2.016e-03
 845.271  2.016e-03
 845.579  2.018e-03
 845.887  2.027e-03
 846.196  2.032e-03
 846.504  2.034e-03
 846.812  2.031e-03
 847.120  2.036e-03
 847.428  2.041e-03
 847.736  2.045e-03
 848.044  2.045e-03
 848.351  2.045e-03
 848.659  2.050e-03
 848.967  2.053e-03
 849.275  2.057e-03
 849.582  2.058e-03
 849.890  2.059e-03
 850.197  2.059e-03
 850.505  2.064e-03
 850.812  2.064e-03
 851.120  2.066e-03
 851.427  2.070e-03
 851.734  2.078e-03
 852.041  2.079e-03
 852.349  2.080e-03
 852.656  2.079e-03
 852.963  2.086e-03
 853.270  2.087e-03
 853.577  2.087e-03
 853.883  2.083e-03
 854.190  2.082e-03
 854.497  2.087e-03
 854.804  2.094e-03
 855.110  2.102e-03
 855.417  2.101e-03
 855.724  2.103e-03
 856.030  2.096e-03
 856.337  2.105e-03
 856.643  2.102e-03
 856.949  2.111e-03
 857.256  2.100e-03
 857.562  2.112e-03
 857.868  2.114e-03
 858.174  2.125e-03
 858.480  2.126e-03
 858.786  2.126e-03
 859.092  2.129e-03
 859.398  2.127e-03
 859.704  2.133e-03
 860.010  2.133e-03
 860.316  2.136e-03
 860.622  2.134e-03
 860.927  2.136e-03
 861.233  2.141e-03
 861.538  2.145e-03
 861.844  2.152e-03
 862.149  2.153e-03
 862.455  2.155e-03
 862.760  2.152e-03
 863.065  2.159e-03
 863.371  2.160e-03
 863.676  2.164e-03
 863.981  2.166e-03
 864.286  2.174e-03
 864.591  2.180e-03
 864.896  2.182e-03
 865.201  2.186e-03
 865.506  2.187e-03
 865.811  2.187e-03
 866.115  2.190e-03
 866.420  2.195e-03
 866.725  2.199e-03
 867.029  2.195e-03
 867.334  2.200e-03
 867.638  2.203e-03
 867.943  2.206e-03
 868.247  2.202e-03
 868.552  2.204e-03
 868.856  2.212e-03
 869.160  2.213e-03
 869.464  2.216e-03
 869.768  2.215e-03
 870.073  2.215e-03
 870.377  2.216e-03
 870.681  2.217e-03
 870.984  2.222e-03
 871.288  2.225e-03
 871.592  2.232e-03
 871.896  2.243e-03
 872.200  2.246e-03
 872.503  2.247e-03
 872.807  2.241e-03
 873.110  2.247e-03
 873.414  2.253e-03
 873.717  2.257e-03
 874.021  2.262e-03
 874.324  2.261e-03
 874.627  2.257e-03
 874.931  2.252e-03
 875.234  2.249e-03
 875.537  2.253e-03
 875.840  2.252e-03
 876.143  2.268e-03
 876.446  2.274e-03
 876.749  2.279e-03
 877.052  2.276e-03
 877.354  2.279e-03
 877.657  2.285e-03
 877.960  2.284e-03
 878.262  2.292e-03
 878.565  2.289e-03
 878.868  2.295e-03
 879.170  2.291e-03
 879.473  2.299e-03
 879.775  2.293e-03
 880.077  2.293e-03
 880.379  2.292e-03
 880.682  2.302e-03
 880.984  2.299e-03
 881.286  2.299e-03
 881.588  2.298e-03
 881.890  2.308e-03
 882.192  2.316e-03
 882.494  2.320e-03
 882.796  2.322e-03
 883.097  2.316e-03
 883.399  2.316e-03
 883.701  2.319e-03
 884.002  2.322e-03
 884.304  2.321e-03
 884.606  2.320e-03
 884.907  2.320e-03
 885.208  2.325e-03
 885.510  2.330e-03
 885.811  2.333e-03
 886.112  2.337e-03
 886.414  2.333e-03
 886.715  2.338e-03
 887.016  2.348e-03
 887.317  2.356e-03
 887.618  2.352e-03
 887.919  2.339e-03
 888.220  2.335e-03
 888.520  2.339e-03
 888.821  2.344e-03
 889.122  2.347e-03
 889.423  2.356e-03
 889.723  2.360e-03
 890.024  2.359e-03
 890.324  2.353e-03
 890.625  2.347e-03
 890.925  2.358e-03
 891.225  2.361e-03
 891.526  2.374e-03
 891.826  2.367e-03
 892.126  2.373e-03
 892.426  2.375e-03
 892.726  2.376e-03
 893.026  2.376e-03
 893.326  2.367e-03
 893.626  2.376e-03
 893.926  2.377e-03
 894.226  2.379e-03
 894.526  2.376e-03
 894.825  2.382e-03
 895.125  2.383e-03
 895.424  2.392e-03
 895.724  2.393e-03
 896.023  2.403e-03
 896.323  2.401e-03
 896.622  2.400e-03
 896.922  2.400e-03
 897.221  2.400e-03
 897.520  2.408e-03
 897.819  2.412e-03
 898.118  2.416e-03
 898.417  2.419e-03
 898.716  2.425e-03
 899.015  2.435e-03
 899.314  2.435e-03
 899.613  2.434e-03
 899.912  2.427e-03
 900.210  2.430e-03
 900.509  2.427e-03
 900.808  2.434e-03
 901.106  2.437e-03
 901.405  2.440e-03
 901.703  2.440e-03
 902.002  2.439e-03
 902.300  2.439e-03
 902.598  2.433e-03
 902.897  2.431e-03
 903.195  2.432e-03
 903.493  2.442e-03
 903.791  2.442e-03
 904.089  2.445e-03
 904.387  2.438e-03
 904.685  2.441e-03
 904.983  2.449e-03
 905.281  2.457e-03
 905.578  2.468e-03
 905.876  2.471e-03
 906.174  2.478e-03
 906.471  2.472e-03
 906.769  2.476e-03
 907.066  2.479e-03
 907.364  2.484e-03
 907.661  2.486e-03
 907.958  2.490e-03
 908.256  2.495e-03
 908.553  2.496e-03
 908.850  2.500e-03
 909.147  2.502e-03
 909.444  2.504e-03
 909.741  2.503e-03
 910.038  2.512e-03
 910.335  2.515e-03
 910.632  2.525e-03
 910.929  2.529e-03
 911.225  2.522e-03
 911.522  2.512e-03
 911.819  2.511e-03
 912.115  2.519e-03
 912.412  2.528e-03
 912.708  2.518e-03
 913.005  2.522e-03
 913.301  2.523e-03
 913.597  2.536e-03
 913.893  2.527e-03
 914.190  2.519e-03
 914.486  2.522e-03
 914.782  2.530e-03
 915.078  2.536e-03
 915.374  2.534e-03
 915.670  2.543e-03
 915.966  2.550e-03
 916.261  2.555e-03
 916.557  2.551e-03
 916.853  2.552e-03
 917.148  2.550e-03
 917.444  2.558e-03
 917.740  2.566e-03
 918.035  2.577e-03
 918.330  2.572e-03
 918.626  2.565e-03
 918.921  2.569e-03
 919.216  2.578e-03
 919.512  2.583e-03
 919.807  2.579e-03
 920.102  2.570e-03
 920.397  2.568e-03
 920.692  2.572e-03
 920.987  2.584e-03
 921.282  2.602e-03
 921.577  2.594e-03
 921.871  2.596e-03
 922.166  2.575e-03
 922.461  2.580e-03
 922.755  2.585e-03
 923.050  2.602e-03
 923.344  2.599e-03
 923.639  2.596e-03
 923.933  2.587e-03
 924.227  2.596e-03
 924.522  2.593e-03
 924.816  2.603e-03
 925.110  2.603e-03
 925.404  2.601e-03
 925.698  2.600e-03
 925.992  2.603e-03
 926.286  2.615e-03
 926.580  2.622e-03
 926.874  2.628e-03
 927.168  2.630e-03
 927.462  2.632e-03
 927.755  2.632e-03
 928.049  2.627e-03
 928.342  2.625e-03
 928.636  2.622e-03
 928.929  2.642e-03
 929.223  2.643e-03
 929.516  2.652e-03
 929.810  2.648e-03
 930.103  2.649e-03
 930.396  2.645e-03
 930.689  2.636e-03
 930.982  2.639e-03
 931.275  2.652e-03
 931.568  2.646e-03
 931.861  2.648e-03
 932.154  2.636e-03
 932.447  2.647e-03
 932.740  2.647e-03
 933.032  2.655e-03
 933.325  2.659e-03
 933.617  2.661e-03
 933.910  2.660e-03
 934.202  2.658e-03
 934.495  2.667e-03
 934.787  2.665e-03
 935.080  2.674e-03
 935.372  2.675e-03
 935.664  2.687e-03
 935.956  2.672e-03
 936.248  2.675e-03
 936.540  2.667e-03
 936.832  2.680e-03
 937.124  2.672e-03
 937.416  2.672e-03
 937.708  2.671e-03
 938.000  2.671e-03
 938.291  2.659e-03
 938.583  2.659e-03
 938.875  2.669e-03
 939.166  2.689e-03
 939.458  2.695e-03
 939.749  2.691e-03
 940.041  2.687e-03
 940.332  2.687e-03
 940.623  2.700e-03
 940.914  2.706e-03
 941.206  2.701e-03
 941.497  2.698e-03
 941.788  2.690e-03
 942.079  2.695e-03
 942.370  2.691e-03
 942.661  2.692e-03
 942.951  2.691e-03
 943.242  2.681e-03
 943.533  2.687e-03
 943.824  2.691e-03
 944.114  2.707e-03
 944.405  2.717e-03
 944.695  2.716e-03
 944.986  2.713e-03
 945.276  2.702e-03
 945.566  2.713e-03
 945.857  2.719e-03
 946.147  2.735e-03
 946.437  2.736e-03
 946.727  2.740e-03
 947.017  2.738e-03
 947.307  2.733e-03
 947.597  2.739e-03
 947.887  2.731e-03
 948.177  2.735e-03
 948.467  2.735e-03
 948.757  2.733e-03
 949.046  2.715e-03
 949.336  2.709e-03
 949.625  2.721e-03
 949.915  2.754e-03
 950.204  2.757e-03
 950.494  2.764e-03
 950.783  2.759e-03
 951.072  2.759e-03
 951.362  2.756e-03
 951.651  2.755e-03
 951.940  2.763e-03
 952.229  2.766e-03
 952.518  2.782e-03
 952.807  2.781e-03
 953.096  2.784e-03
 953.385  2.764e-03
 953.674  2.750e-03
 953.962  2.737e-03
 954.251  2.750e-03
 954.540  2.749e-03
 954.828  2.741e-03
 955.117  2.741e-03
 955.405  2.753e-03
 955.694  2.783e-03
 955.982  2.783e-03
 956.270  2.799e-03
 956.559  2.798e-03
 956.847  2.797e-03
 957.135  2.796e-03
 957.423  2.782e-03
 957.711  2.773e-03
 957.999  2.765e-03
 958.287  2.763e-03
 958.575  2.770e-03
 958.863  2.757e-03
 959.150  2.779e-03
 959.438  2.788e-03
 959.726  2.817e-03
 960.013  2.813e-03
 960.301  2.793e-03
 960.588  2.778e-03
 960.876  2.782e-03
 961.163  2.769e-03
 961.450  2.772e-03
 961.738  2.765e-03
 962.025  2.777e-03
 962.312  2.767e-03
 962.599  2.797e-03
 962.886  2.811e-03
 963.173  2.808e-03
 963.460  2.790e-03
 963.747  2.778e-03
 964.034  2.800e-03
 964.320  2.790e-03
 964.607  2.790e-03
 964.894  2.809e-03
 965.180  2.804e-03
 965.467  2.832e-03
 965.753  2.795e-03
 966.040  2.791e-03
 966.326  2.788e-03
 966.612  2.815e-03
 966.899  2.834e-03
 967.185  2.832e-03
 967.471  2.816e-03
 967.757  2.791e-03
 968.043  2.770e-03
 968.329  2.753e-03
 968.615  2.746e-03
 968.901  2.769e-03
 969.187  2.796e-03
 969.472  2.820e-03
 969.758  2.786e-03
 970.044  2.760e-03
 970.329  2.735e-03
 970.615  2.779e-03
 970.900  2.817e-03
 971.186  2.834e-03
 971.471  2.805e-03
 971.756  2.774e-03
 972.042  2.774e-03
 972.327  2.776e-03
 972.612  2.759e-03
 972.897  2.756e-03
 973.182  2.774e-03
 973.467  2.806e-03
 973.752  2.789e-03
 974.037  2.790e-03
 974.322  2.796e-03
 974.606  2.827e-03
 974.891  2.801e-03
 975.176  2.774e-03
 975.460  2.765e-03
 975.745  2.790e-03
 976.029  2.812e-03
 976.314  2.790e-03
 976.598  2.781e-03
 976.882  2.788e-03
 977.167  2.790e-03
 977.451  2.793e-03
 977.735  2.791e-03
 978.019  2.805e-03
 978.303  2.816e-03
 978.587  2.799e-03
 978.871  2.791e-03
 979.155  2.788e-03
 979.439  2.786e-03
 979.722  2.796e-03
 980.006  2.772e-03
 980.290  2.843e-03
 980.573  2.861e-03
 980.857  2.921e-03
 981.140  2.877e-03
 981.424  2.859e-03
 981.707  2.831e-03
 981.990  2.778e-03
 982.273  2.780e-03
 982.557  2.759e-03
 982.840  2.785e-03
 983.123  2.807e-03
 983.406  2.800e-03
 983.689  2.816e-03
 983.972  2.803e-03
 984.255  2.836e-03
 984.537  2.878e-03
 984.820  2.854e-03
 985.103  2.807e-03
 985.385  2.769e-03
 985.668  2.788e-03
 985.951  2.812e-03
 986.233  2.817e-03
 986.515  2.803e-03
 986.798  2.790e-03
 987.080  2.746e-03
 987.362  2.732e-03
 987.644  2.749e-03
 987.927  2.727e-03
 988.209  2.733e-03
 988.491  2.735e-03
 988.773  2.756e-03
 989.055  2.764e-03
 989.336  2.738e-03
 989.618  2.740e-03
 989.900  2.758e-03
 990.182  2.815e-03
 990.463  2.848e-03
 990.745  2.855e-03
 991.026  2.797e-03
 991.308  2.768e-03
 991.589  2.732e-03
 991.870  2.773e-03
 992.152  2.840e-03
 992.433  2.837e-03
 992.714  2.807e-03
 992.995  2.765e-03
 993.276  2.846e-03
 993.557  2.839e-03
 993.838  2.814e-03
 994.119  2.717e-03
 994.400  2.693e-03
 994.681  2.684e-03
 994.961  2.767e-03
 995.242  2.759e-03
 995.523  2.756e-03
 995.803  2.714e-03
 996.084  2.784e-03
 996.364  2.840e-03
 996.645  2.793e-03
 996.925  2.821e-03
 997.205  2.837e-03
 997.485  2.818e-03
 997.766  2.778e-03
 998.046  2.750e-03
 998.326  2.811e-03
 998.606  2.835e-03
 998.886  2.793e-03
 999.166  2.772e-03
 999.445  2.679e-03
 999.725  2.690e-03
1000.005  2.712e-03
1000.284  2.697e-03
1000.564  2.659e-03
1000.844  2.645e-03
1001.123  2.710e-03
1001.402  2.723e-03
1001.682  2.740e-03
1001.961  2.755e-03
1002.240  2.786e-03
1002.520  2.666e-03
1002.799  2.688e-03
1003.078  2.617e-03
1003.357  2.718e-03
1003.636  2.615e-03
1003.915  2.726e-03
1004.194  2.688e-03
1004.472  2.811e-03
1004.751  2.748e-03
1005.030  2.836e-03
1005.309  2.786e-03
1005.587  2.830e-03
1005.866  2.761e-03
1006.144  2.842e-03
1006.422  2.784e-03
1006.701  2.822e-03
1006.979  2.793e-03
1007.257  2.849e-03
1007.536  2.863e-03
1007.814  2.784e-03
1008.092  2.753e-03
1008.370  2.756e-03
1008.648  2.836e-03
1008.926  2.791e-03
1009.203  2.700e-03
1009.481  2.520e-03
1009.759  2.400e-03
1010.037  2.457e-03
1010.314  2.481e-03
1010.592  2.606e-03
1010.869  2.554e-03
1011.147  2.500e-03
1011.424  2.394e-03
1011.701  2.396e-03
1011.979  2.542e-03
1012.256  2.620e-03
1012.533  2.581e-03
1012.810  2.506e-03
1013.087  2.554e-03
1013.364  2.571e-03
1013.641  2.572e-03
1013.918  2.522e-03
1014.195  2.522e-03
