Data from ha04_a50L_FLMS070571_001.txt Node
Date: Tue Apr 10 15:46:57 EDT 2018
User: peter
Spectrometer: FLMS07057
Trigger mode: 0
Integration Time (sec): 1.200000E-1
Scans to average: 10
Electric dark correction enabled: true
Nonlinearity correction enabled: false
Boxcar width: 0
XAxis mode: Wavelengths
Number of Pixels in Spectrum: 2048
>>>>>Begin Spectral Data<<<<<
 339.015        NaN
 339.393        NaN
 339.770        NaN
 340.148        NaN
 340.526        NaN
 340.904        NaN
 341.281        NaN
 341.659        NaN
 342.036        NaN
 342.414        NaN
 342.791        NaN
 343.169        NaN
 343.546        NaN
 343.923        NaN
 344.301        NaN
 344.678        NaN
 345.055        NaN
 345.432        NaN
 345.810        NaN
 346.187        NaN
 346.564        NaN
 346.941        NaN
 347.318        NaN
 347.695        NaN
 348.071        NaN
 348.448        NaN
 348.825        NaN
 349.202        NaN
 349.578        NaN
 349.955        NaN
 350.332        NaN
 350.708        NaN
 351.085        NaN
 351.461        NaN
 351.838        NaN
 352.214        NaN
 352.591        NaN
 352.967        NaN
 353.343        NaN
 353.719        NaN
 354.096        NaN
 354.472        NaN
 354.848        NaN
 355.224        NaN
 355.600        NaN
 355.976        NaN
 356.352        NaN
 356.728        NaN
 357.104        NaN
 357.479        NaN
 357.855        NaN
 358.231        NaN
 358.607        NaN
 358.982        NaN
 359.358        NaN
 359.734        NaN
 360.109        NaN
 360.484        NaN
 360.860        NaN
 361.235        NaN
 361.611        NaN
 361.986        NaN
 362.361        NaN
 362.736        NaN
 363.112        NaN
 363.487        NaN
 363.862        NaN
 364.237        NaN
 364.612        NaN
 364.987        NaN
 365.362        NaN
 365.737        NaN
 366.112        NaN
 366.486        NaN
 366.861        NaN
 367.236        NaN
 367.610        NaN
 367.985        NaN
 368.360        NaN
 368.734        NaN
 369.109        NaN
 369.483        NaN
 369.858        NaN
 370.232        NaN
 370.606        NaN
 370.981        NaN
 371.355        NaN
 371.729        NaN
 372.103        NaN
 372.477        NaN
 372.851        NaN
 373.225        NaN
 373.599        NaN
 373.973        NaN
 374.347        NaN
 374.721        NaN
 375.095        NaN
 375.469        NaN
 375.842        NaN
 376.216        NaN
 376.590        NaN
 376.963        NaN
 377.337        NaN
 377.710        NaN
 378.084        NaN
 378.457        NaN
 378.831        NaN
 379.204        NaN
 379.577        NaN
 379.951        NaN
 380.324        NaN
 380.697        NaN
 381.070        NaN
 381.443        NaN
 381.816        NaN
 382.189        NaN
 382.562        NaN
 382.935        NaN
 383.308        NaN
 383.681        NaN
 384.054        NaN
 384.426        NaN
 384.799        NaN
 385.172        NaN
 385.544        NaN
 385.917        NaN
 386.290        NaN
 386.662        NaN
 387.034        NaN
 387.407        NaN
 387.779        NaN
 388.152        NaN
 388.524        NaN
 388.896        NaN
 389.268        NaN
 389.640        NaN
 390.013        NaN
 390.385        NaN
 390.757        NaN
 391.129        NaN
 391.500        NaN
 391.872        NaN
 392.244        NaN
 392.616        NaN
 392.988        NaN
 393.360        NaN
 393.731        NaN
 394.103        NaN
 394.474        NaN
 394.846        NaN
 395.217        NaN
 395.589        NaN
 395.960        NaN
 396.332        NaN
 396.703        NaN
 397.074        NaN
 397.446        NaN
 397.817        NaN
 398.188        NaN
 398.559        NaN
 398.930        NaN
 399.301        NaN
 399.672        NaN
 400.043        NaN
 400.414        NaN
 400.785        NaN
 401.156        NaN
 401.526        NaN
 401.897        NaN
 402.268  1.260e-03
 402.638  1.139e-03
 403.009  1.113e-03
 403.380  1.017e-03
 403.750  1.078e-03
 404.121  1.127e-03
 404.491  1.189e-03
 404.861  1.203e-03
 405.232  1.199e-03
 405.602  1.259e-03
 405.972  1.202e-03
 406.342  1.251e-03
 406.713  1.257e-03
 407.083  1.265e-03
 407.453  1.241e-03
 407.823  1.180e-03
 408.193  1.196e-03
 408.563  1.155e-03
 408.933  1.206e-03
 409.302  1.272e-03
 409.672  1.265e-03
 410.042  1.254e-03
 410.412  1.239e-03
 410.781  1.264e-03
 411.151  1.227e-03
 411.521  1.200e-03
 411.890  1.141e-03
 412.260  1.194e-03
 412.629  1.162e-03
 412.999  1.205e-03
 413.368  1.212e-03
 413.737  1.257e-03
 414.107  1.244e-03
 414.476  1.174e-03
 414.845  1.206e-03
 415.214  1.240e-03
 415.583  1.258e-03
 415.952  1.187e-03
 416.322  1.177e-03
 416.691  1.201e-03
 417.059  1.257e-03
 417.428  1.292e-03
 417.797  1.244e-03
 418.166  1.250e-03
 418.535  1.192e-03
 418.904  1.241e-03
 419.272  1.202e-03
 419.641  1.273e-03
 420.009  1.304e-03
 420.378  1.315e-03
 420.747  1.246e-03
 421.115  1.206e-03
 421.483  1.218e-03
 421.852  1.274e-03
 422.220  1.268e-03
 422.588  1.250e-03
 422.957  1.274e-03
 423.325  1.269e-03
 423.693  1.279e-03
 424.061  1.204e-03
 424.429  1.208e-03
 424.797  1.240e-03
 425.165  1.267e-03
 425.533  1.272e-03
 425.901  1.244e-03
 426.269  1.241e-03
 426.637  1.234e-03
 427.005  1.223e-03
 427.372  1.255e-03
 427.740  1.297e-03
 428.108  1.310e-03
 428.475  1.278e-03
 428.843  1.227e-03
 429.210  1.233e-03
 429.578  1.246e-03
 429.945  1.294e-03
 430.312  1.296e-03
 430.680  1.295e-03
 431.047  1.266e-03
 431.414  1.248e-03
 431.782  1.237e-03
 432.149  1.207e-03
 432.516  1.197e-03
 432.883  1.227e-03
 433.250  1.263e-03
 433.617  1.289e-03
 433.984  1.281e-03
 434.351  1.287e-03
 434.718  1.271e-03
 435.084  1.257e-03
 435.451  1.240e-03
 435.818  1.258e-03
 436.184  1.253e-03
 436.551  1.253e-03
 436.918  1.242e-03
 437.284  1.262e-03
 437.651  1.265e-03
 438.017  1.293e-03
 438.384  1.287e-03
 438.750  1.300e-03
 439.116  1.259e-03
 439.483  1.284e-03
 439.849  1.276e-03
 440.215  1.285e-03
 440.581  1.271e-03
 440.947  1.272e-03
 441.313  1.297e-03
 441.679  1.307e-03
 442.045  1.321e-03
 442.411  1.312e-03
 442.777  1.311e-03
 443.143  1.324e-03
 443.509  1.324e-03
 443.874  1.325e-03
 444.240  1.304e-03
 444.606  1.301e-03
 444.971  1.293e-03
 445.337  1.317e-03
 445.703  1.329e-03
 446.068  1.356e-03
 446.433  1.360e-03
 446.799  1.382e-03
 447.164  1.371e-03
 447.530  1.352e-03
 447.895  1.346e-03
 448.260  1.349e-03
 448.625  1.380e-03
 448.990  1.384e-03
 449.355  1.388e-03
 449.720  1.388e-03
 450.085  1.360e-03
 450.450  1.372e-03
 450.815  1.374e-03
 451.180  1.430e-03
 451.545  1.425e-03
 451.910  1.426e-03
 452.275  1.413e-03
 452.639  1.429e-03
 453.004  1.448e-03
 453.369  1.465e-03
 453.733  1.446e-03
 454.098  1.434e-03
 454.462  1.424e-03
 454.826  1.428e-03
 455.191  1.438e-03
 455.555  1.444e-03
 455.919  1.459e-03
 456.284  1.454e-03
 456.648  1.474e-03
 457.012  1.469e-03
 457.376  1.478e-03
 457.740  1.472e-03
 458.104  1.497e-03
 458.468  1.500e-03
 458.832  1.501e-03
 459.196  1.511e-03
 459.560  1.495e-03
 459.924  1.508e-03
 460.288  1.500e-03
 460.651  1.533e-03
 461.015  1.516e-03
 461.379  1.515e-03
 461.742  1.502e-03
 462.106  1.508e-03
 462.469  1.507e-03
 462.833  1.503e-03
 463.196  1.499e-03
 463.559  1.511e-03
 463.923  1.529e-03
 464.286  1.537e-03
 464.649  1.543e-03
 465.012  1.536e-03
 465.376  1.531e-03
 465.739  1.513e-03
 466.102  1.531e-03
 466.465  1.541e-03
 466.828  1.563e-03
 467.191  1.551e-03
 467.553  1.565e-03
 467.916  1.568e-03
 468.279  1.582e-03
 468.642  1.581e-03
 469.004  1.593e-03
 469.367  1.592e-03
 469.730  1.604e-03
 470.092  1.596e-03
 470.455  1.597e-03
 470.817  1.577e-03
 471.180  1.572e-03
 471.542  1.569e-03
 471.904  1.569e-03
 472.267  1.571e-03
 472.629  1.577e-03
 472.991  1.583e-03
 473.353  1.597e-03
 473.715  1.597e-03
 474.078  1.613e-03
 474.440  1.597e-03
 474.802  1.587e-03
 475.163  1.573e-03
 475.525  1.577e-03
 475.887  1.580e-03
 476.249  1.583e-03
 476.611  1.585e-03
 476.972  1.592e-03
 477.334  1.601e-03
 477.696  1.601e-03
 478.057  1.614e-03
 478.419  1.609e-03
 478.780  1.617e-03
 479.142  1.602e-03
 479.503  1.599e-03
 479.865  1.604e-03
 480.226  1.616e-03
 480.587  1.629e-03
 480.948  1.629e-03
 481.310  1.634e-03
 481.671  1.629e-03
 482.032  1.632e-03
 482.393  1.628e-03
 482.754  1.641e-03
 483.115  1.637e-03
 483.476  1.652e-03
 483.837  1.651e-03
 484.197  1.661e-03
 484.558  1.653e-03
 484.919  1.654e-03
 485.280  1.648e-03
 485.640  1.663e-03
 486.001  1.669e-03
 486.361  1.682e-03
 486.722  1.675e-03
 487.082  1.677e-03
 487.443  1.677e-03
 487.803  1.685e-03
 488.163  1.692e-03
 488.524  1.702e-03
 488.884  1.704e-03
 489.244  1.711e-03
 489.604  1.715e-03
 489.964  1.721e-03
 490.324  1.726e-03
 490.684  1.737e-03
 491.044  1.742e-03
 491.404  1.747e-03
 491.764  1.749e-03
 492.124  1.757e-03
 492.484  1.762e-03
 492.843  1.769e-03
 493.203  1.780e-03
 493.563  1.784e-03
 493.922  1.793e-03
 494.282  1.789e-03
 494.642  1.789e-03
 495.001  1.794e-03
 495.360  1.806e-03
 495.720  1.821e-03
 496.079  1.829e-03
 496.438  1.831e-03
 496.798  1.835e-03
 497.157  1.840e-03
 497.516  1.849e-03
 497.875  1.852e-03
 498.234  1.858e-03
 498.593  1.864e-03
 498.952  1.874e-03
 499.311  1.881e-03
 499.670  1.889e-03
 500.029  1.895e-03
 500.388  1.902e-03
 500.746  1.907e-03
 501.105  1.915e-03
 501.464  1.924e-03
 501.822  1.932e-03
 502.181  1.943e-03
 502.539  1.952e-03
 502.898  1.963e-03
 503.256  1.966e-03
 503.615  1.972e-03
 503.973  1.978e-03
 504.331  1.996e-03
 504.690  2.013e-03
 505.048  2.029e-03
 505.406  2.033e-03
 505.764  2.035e-03
 506.122  2.041e-03
 506.480  2.055e-03
 506.838  2.067e-03
 507.196  2.075e-03
 507.554  2.089e-03
 507.912  2.097e-03
 508.270  2.107e-03
 508.627  2.116e-03
 508.985  2.131e-03
 509.343  2.138e-03
 509.700  2.145e-03
 510.058  2.158e-03
 510.415  2.171e-03
 510.773  2.181e-03
 511.130  2.193e-03
 511.488  2.207e-03
 511.845  2.217e-03
 512.202  2.226e-03
 512.560  2.239e-03
 512.917  2.249e-03
 513.274  2.264e-03
 513.631  2.271e-03
 513.988  2.286e-03
 514.345  2.292e-03
 514.702  2.314e-03
 515.059  2.336e-03
 515.416  2.348e-03
 515.773  2.359e-03
 516.130  2.374e-03
 516.486  2.393e-03
 516.843  2.405e-03
 517.200  2.406e-03
 517.556  2.420e-03
 517.913  2.434e-03
 518.269  2.451e-03
 518.626  2.458e-03
 518.982  2.474e-03
 519.339  2.485e-03
 519.695  2.499e-03
 520.051  2.510e-03
 520.408  2.526e-03
 520.764  2.535e-03
 521.120  2.540e-03
 521.476  2.550e-03
 521.832  2.566e-03
 522.188  2.582e-03
 522.544  2.594e-03
 522.900  2.606e-03
 523.256  2.625e-03
 523.612  2.637e-03
 523.968  2.653e-03
 524.323  2.659e-03
 524.679  2.675e-03
 525.035  2.691e-03
 525.390  2.708e-03
 525.746  2.721e-03
 526.102  2.725e-03
 526.457  2.732e-03
 526.812  2.740e-03
 527.168  2.750e-03
 527.523  2.763e-03
 527.878  2.776e-03
 528.234  2.791e-03
 528.589  2.801e-03
 528.944  2.808e-03
 529.299  2.812e-03
 529.654  2.820e-03
 530.009  2.828e-03
 530.364  2.844e-03
 530.719  2.853e-03
 531.074  2.866e-03
 531.429  2.881e-03
 531.784  2.896e-03
 532.138  2.906e-03
 532.493  2.914e-03
 532.848  2.920e-03
 533.202  2.927e-03
 533.557  2.932e-03
 533.911  2.936e-03
 534.266  2.943e-03
 534.620  2.952e-03
 534.975  2.967e-03
 535.329  2.977e-03
 535.683  2.980e-03
 536.038  2.985e-03
 536.392  2.993e-03
 536.746  3.008e-03
 537.100  3.024e-03
 537.454  3.035e-03
 537.808  3.044e-03
 538.162  3.047e-03
 538.516  3.050e-03
 538.870  3.060e-03
 539.224  3.075e-03
 539.577  3.089e-03
 539.931  3.104e-03
 540.285  3.118e-03
 540.639  3.123e-03
 540.992  3.142e-03
 541.346  3.149e-03
 541.699  3.168e-03
 542.053  3.175e-03
 542.406  3.197e-03
 542.759  3.217e-03
 543.113  3.227e-03
 543.466  3.237e-03
 543.819  3.247e-03
 544.172  3.271e-03
 544.526  3.286e-03
 544.879  3.304e-03
 545.232  3.322e-03
 545.585  3.343e-03
 545.938  3.369e-03
 546.291  3.381e-03
 546.643  3.401e-03
 546.996  3.421e-03
 547.349  3.448e-03
 547.702  3.475e-03
 548.054  3.492e-03
 548.407  3.519e-03
 548.760  3.542e-03
 549.112  3.565e-03
 549.465  3.585e-03
 549.817  3.604e-03
 550.169  3.631e-03
 550.522  3.659e-03
 550.874  3.685e-03
 551.226  3.711e-03
 551.579  3.736e-03
 551.931  3.771e-03
 552.283  3.804e-03
 552.635  3.832e-03
 552.987  3.851e-03
 553.339  3.875e-03
 553.691  3.906e-03
 554.043  3.940e-03
 554.395  3.975e-03
 554.746  4.008e-03
 555.098  4.038e-03
 555.450  4.069e-03
 555.802  4.105e-03
 556.153  4.137e-03
 556.505  4.165e-03
 556.856  4.190e-03
 557.208  4.222e-03
 557.559  4.252e-03
 557.911  4.273e-03
 558.262  4.301e-03
 558.613  4.334e-03
 558.964  4.376e-03
 559.316  4.415e-03
 559.667  4.444e-03
 560.018  4.483e-03
 560.369  4.511e-03
 560.720  4.545e-03
 561.071  4.574e-03
 561.422  4.608e-03
 561.773  4.646e-03
 562.124  4.677e-03
 562.474  4.699e-03
 562.825  4.727e-03
 563.176  4.752e-03
 563.526  4.787e-03
 563.877  4.818e-03
 564.228  4.850e-03
 564.578  4.892e-03
 564.928  4.915e-03
 565.279  4.940e-03
 565.629  4.946e-03
 565.980  4.974e-03
 566.330  5.008e-03
 566.680  5.045e-03
 567.030  5.080e-03
 567.380  5.112e-03
 567.730  5.143e-03
 568.080  5.170e-03
 568.430  5.197e-03
 568.780  5.228e-03
 569.130  5.244e-03
 569.480  5.265e-03
 569.830  5.282e-03
 570.180  5.305e-03
 570.529  5.337e-03
 570.879  5.364e-03
 571.229  5.394e-03
 571.578  5.411e-03
 571.928  5.438e-03
 572.277  5.468e-03
 572.627  5.496e-03
 572.976  5.522e-03
 573.325  5.556e-03
 573.675  5.582e-03
 574.024  5.613e-03
 574.373  5.639e-03
 574.722  5.657e-03
 575.071  5.680e-03
 575.420  5.693e-03
 575.769  5.729e-03
 576.118  5.762e-03
 576.467  5.797e-03
 576.816  5.825e-03
 577.165  5.850e-03
 577.514  5.866e-03
 577.863  5.883e-03
 578.211  5.897e-03
 578.560  5.933e-03
 578.908  5.957e-03
 579.257  5.994e-03
 579.606  6.008e-03
 579.954  6.045e-03
 580.302  6.074e-03
 580.651  6.110e-03
 580.999  6.123e-03
 581.347  6.142e-03
 581.696  6.155e-03
 582.044  6.191e-03
 582.392  6.213e-03
 582.740  6.247e-03
 583.088  6.267e-03
 583.436  6.291e-03
 583.784  6.305e-03
 584.132  6.328e-03
 584.480  6.350e-03
 584.827  6.379e-03
 585.175  6.406e-03
 585.523  6.423e-03
 585.870  6.440e-03
 586.218  6.463e-03
 586.566  6.495e-03
 586.913  6.525e-03
 587.261  6.540e-03
 587.608  6.566e-03
 587.955  6.589e-03
 588.303  6.616e-03
 588.650  6.636e-03
 588.997  6.658e-03
 589.344  6.689e-03
 589.692  6.708e-03
 590.039  6.724e-03
 590.386  6.737e-03
 590.733  6.762e-03
 591.080  6.788e-03
 591.427  6.818e-03
 591.773  6.831e-03
 592.120  6.857e-03
 592.467  6.875e-03
 592.814  6.898e-03
 593.160  6.911e-03
 593.507  6.928e-03
 593.854  6.954e-03
 594.200  6.975e-03
 594.547  6.997e-03
 594.893  7.020e-03
 595.239  7.039e-03
 595.586  7.056e-03
 595.932  7.073e-03
 596.278  7.091e-03
 596.624  7.122e-03
 596.971  7.134e-03
 597.317  7.162e-03
 597.663  7.179e-03
 598.009  7.211e-03
 598.355  7.227e-03
 598.701  7.244e-03
 599.046  7.267e-03
 599.392  7.280e-03
 599.738  7.289e-03
 600.084  7.298e-03
 600.429  7.327e-03
 600.775  7.349e-03
 601.121  7.357e-03
 601.466  7.364e-03
 601.812  7.379e-03
 602.157  7.406e-03
 602.503  7.438e-03
 602.848  7.448e-03
 603.193  7.459e-03
 603.538  7.462e-03
 603.884  7.477e-03
 604.229  7.493e-03
 604.574  7.501e-03
 604.919  7.518e-03
 605.264  7.534e-03
 605.609  7.556e-03
 605.954  7.565e-03
 606.299  7.578e-03
 606.644  7.578e-03
 606.988  7.591e-03
 607.333  7.607e-03
 607.678  7.632e-03
 608.022  7.658e-03
 608.367  7.659e-03
 608.712  7.663e-03
 609.056  7.653e-03
 609.400  7.668e-03
 609.745  7.681e-03
 610.089  7.697e-03
 610.434  7.707e-03
 610.778  7.717e-03
 611.122  7.730e-03
 611.466  7.737e-03
 611.810  7.749e-03
 612.154  7.764e-03
 612.498  7.770e-03
 612.842  7.772e-03
 613.186  7.786e-03
 613.530  7.804e-03
 613.874  7.814e-03
 614.218  7.822e-03
 614.561  7.828e-03
 614.905  7.843e-03
 615.249  7.835e-03
 615.592  7.840e-03
 615.936  7.839e-03
 616.279  7.853e-03
 616.623  7.864e-03
 616.966  7.876e-03
 617.310  7.880e-03
 617.653  7.884e-03
 617.996  7.890e-03
 618.339  7.904e-03
 618.683  7.913e-03
 619.026  7.920e-03
 619.369  7.925e-03
 619.712  7.939e-03
 620.055  7.949e-03
 620.398  7.958e-03
 620.741  7.956e-03
 621.083  7.963e-03
 621.426  7.966e-03
 621.769  7.970e-03
 622.112  7.986e-03
 622.454  7.987e-03
 622.797  8.006e-03
 623.139  8.005e-03
 623.482  8.023e-03
 623.824  8.031e-03
 624.167  8.037e-03
 624.509  8.047e-03
 624.851  8.052e-03
 625.194  8.063e-03
 625.536  8.076e-03
 625.878  8.086e-03
 626.220  8.087e-03
 626.562  8.089e-03
 626.904  8.102e-03
 627.246  8.123e-03
 627.588  8.124e-03
 627.930  8.133e-03
 628.272  8.133e-03
 628.614  8.147e-03
 628.955  8.152e-03
 629.297  8.168e-03
 629.639  8.185e-03
 629.980  8.195e-03
 630.322  8.215e-03
 630.663  8.225e-03
 631.005  8.238e-03
 631.346  8.232e-03
 631.688  8.252e-03
 632.029  8.266e-03
 632.370  8.278e-03
 632.711  8.289e-03
 633.052  8.289e-03
 633.394  8.307e-03
 633.735  8.306e-03
 634.076  8.322e-03
 634.417  8.325e-03
 634.758  8.335e-03
 635.098  8.346e-03
 635.439  8.354e-03
 635.780  8.382e-03
 636.121  8.388e-03
 636.461  8.403e-03
 636.802  8.391e-03
 637.143  8.403e-03
 637.483  8.405e-03
 637.824  8.411e-03
 638.164  8.424e-03
 638.505  8.432e-03
 638.845  8.436e-03
 639.185  8.429e-03
 639.525  8.432e-03
 639.866  8.439e-03
 640.206  8.450e-03
 640.546  8.459e-03
 640.886  8.462e-03
 641.226  8.466e-03
 641.566  8.467e-03
 641.906  8.464e-03
 642.246  8.462e-03
 642.585  8.463e-03
 642.925  8.463e-03
 643.265  8.455e-03
 643.605  8.463e-03
 643.944  8.459e-03
 644.284  8.463e-03
 644.623  8.453e-03
 644.963  8.457e-03
 645.302  8.455e-03
 645.642  8.453e-03
 645.981  8.451e-03
 646.320  8.460e-03
 646.660  8.445e-03
 646.999  8.450e-03
 647.338  8.439e-03
 647.677  8.453e-03
 648.016  8.446e-03
 648.355  8.458e-03
 648.694  8.453e-03
 649.033  8.459e-03
 649.372  8.454e-03
 649.711  8.462e-03
 650.049  8.478e-03
 650.388  8.492e-03
 650.727  8.510e-03
 651.065  8.510e-03
 651.404  8.509e-03
 651.742  8.504e-03
 652.081  8.511e-03
 652.419  8.521e-03
 652.758  8.532e-03
 653.096  8.544e-03
 653.434  8.546e-03
 653.772  8.550e-03
 654.111  8.547e-03
 654.449  8.556e-03
 654.787  8.553e-03
 655.125  8.551e-03
 655.463  8.545e-03
 655.801  8.537e-03
 656.139  8.537e-03
 656.476  8.539e-03
 656.814  8.535e-03
 657.152  8.506e-03
 657.490  8.492e-03
 657.827  8.481e-03
 658.165  8.485e-03
 658.503  8.474e-03
 658.840  8.457e-03
 659.177  8.437e-03
 659.515  8.414e-03
 659.852  8.399e-03
 660.190  8.393e-03
 660.527  8.375e-03
 660.864  8.344e-03
 661.201  8.314e-03
 661.538  8.271e-03
 661.875  8.247e-03
 662.212  8.230e-03
 662.549  8.218e-03
 662.886  8.200e-03
 663.223  8.158e-03
 663.560  8.121e-03
 663.897  8.082e-03
 664.233  8.053e-03
 664.570  8.021e-03
 664.907  7.998e-03
 665.243  7.965e-03
 665.580  7.950e-03
 665.916  7.915e-03
 666.253  7.900e-03
 666.589  7.863e-03
 666.925  7.843e-03
 667.262  7.797e-03
 667.598  7.765e-03
 667.934  7.738e-03
 668.270  7.721e-03
 668.606  7.711e-03
 668.942  7.684e-03
 669.278  7.667e-03
 669.614  7.656e-03
 669.950  7.634e-03
 670.286  7.616e-03
 670.622  7.594e-03
 670.958  7.580e-03
 671.293  7.565e-03
 671.629  7.559e-03
 671.965  7.554e-03
 672.300  7.544e-03
 672.636  7.529e-03
 672.971  7.522e-03
 673.307  7.526e-03
 673.642  7.524e-03
 673.977  7.522e-03
 674.313  7.516e-03
 674.648  7.520e-03
 674.983  7.525e-03
 675.318  7.540e-03
 675.653  7.530e-03
 675.988  7.537e-03
 676.323  7.536e-03
 676.658  7.558e-03
 676.993  7.571e-03
 677.328  7.599e-03
 677.663  7.618e-03
 677.997  7.649e-03
 678.332  7.669e-03
 678.667  7.699e-03
 679.001  7.722e-03
 679.336  7.749e-03
 679.670  7.778e-03
 680.005  7.812e-03
 680.339  7.850e-03
 680.673  7.901e-03
 681.008  7.952e-03
 681.342  8.003e-03
 681.676  8.042e-03
 682.010  8.086e-03
 682.344  8.133e-03
 682.678  8.195e-03
 683.012  8.284e-03
 683.346  8.352e-03
 683.680  8.440e-03
 684.014  8.495e-03
 684.348  8.580e-03
 684.682  8.660e-03
 685.015  8.749e-03
 685.349  8.847e-03
 685.682  8.943e-03
 686.016  9.040e-03
 686.350  9.138e-03
 686.683  9.237e-03
 687.016  9.337e-03
 687.350  9.447e-03
 687.683  9.558e-03
 688.016  9.682e-03
 688.350  9.788e-03
 688.683  9.894e-03
 689.016  1.000e-02
 689.349  1.011e-02
 689.682  1.023e-02
 690.015  1.035e-02
 690.348  1.047e-02
 690.681  1.057e-02
 691.013  1.068e-02
 691.346  1.080e-02
 691.679  1.091e-02
 692.012  1.103e-02
 692.344  1.116e-02
 692.677  1.127e-02
 693.009  1.137e-02
 693.342  1.144e-02
 693.674  1.154e-02
 694.007  1.165e-02
 694.339  1.177e-02
 694.671  1.187e-02
 695.003  1.197e-02
 695.336  1.206e-02
 695.668  1.216e-02
 696.000  1.224e-02
 696.332  1.233e-02
 696.664  1.241e-02
 696.996  1.251e-02
 697.328  1.258e-02
 697.659  1.266e-02
 697.991  1.274e-02
 698.323  1.284e-02
 698.655  1.290e-02
 698.986  1.298e-02
 699.318  1.304e-02
 699.649  1.313e-02
 699.981  1.318e-02
 700.312  1.325e-02
 700.644  1.332e-02
 700.975  1.339e-02
 701.306  1.344e-02
 701.638  1.348e-02
 701.969  1.354e-02
 702.300  1.362e-02
 702.631  1.367e-02
 702.962  1.375e-02
 703.293  1.382e-02
 703.624  1.389e-02
 703.955  1.394e-02
 704.286  1.398e-02
 704.617  1.404e-02
 704.947  1.411e-02
 705.278  1.415e-02
 705.609  1.418e-02
 705.939  1.422e-02
 706.270  1.428e-02
 706.600  1.433e-02
 706.931  1.437e-02
 707.261  1.443e-02
 707.592  1.451e-02
 707.922  1.454e-02
 708.252  1.457e-02
 708.582  1.460e-02
 708.912  1.466e-02
 709.243  1.471e-02
 709.573  1.476e-02
 709.903  1.481e-02
 710.233  1.485e-02
 710.563  1.489e-02
 710.892  1.493e-02
 711.222  1.497e-02
 711.552  1.499e-02
 711.882  1.504e-02
 712.211  1.509e-02
 712.541  1.513e-02
 712.870  1.516e-02
 713.200  1.519e-02
 713.529  1.523e-02
 713.859  1.527e-02
 714.188  1.531e-02
 714.518  1.536e-02
 714.847  1.540e-02
 715.176  1.543e-02
 715.505  1.545e-02
 715.834  1.549e-02
 716.163  1.553e-02
 716.492  1.556e-02
 716.821  1.560e-02
 717.150  1.564e-02
 717.479  1.567e-02
 717.808  1.570e-02
 718.137  1.573e-02
 718.465  1.578e-02
 718.794  1.583e-02
 719.123  1.585e-02
 719.451  1.587e-02
 719.780  1.589e-02
 720.108  1.593e-02
 720.437  1.599e-02
 720.765  1.603e-02
 721.093  1.606e-02
 721.422  1.609e-02
 721.750  1.611e-02
 722.078  1.615e-02
 722.406  1.618e-02
 722.734  1.622e-02
 723.062  1.627e-02
 723.390  1.630e-02
 723.718  1.633e-02
 724.046  1.636e-02
 724.374  1.638e-02
 724.702  1.641e-02
 725.029  1.643e-02
 725.357  1.647e-02
 725.685  1.652e-02
 726.012  1.655e-02
 726.340  1.658e-02
 726.667  1.659e-02
 726.995  1.662e-02
 727.322  1.665e-02
 727.649  1.668e-02
 727.977  1.670e-02
 728.304  1.675e-02
 728.631  1.681e-02
 728.958  1.685e-02
 729.285  1.689e-02
 729.612  1.693e-02
 729.939  1.696e-02
 730.266  1.699e-02
 730.593  1.700e-02
 730.920  1.701e-02
 731.246  1.705e-02
 731.573  1.711e-02
 731.900  1.717e-02
 732.226  1.720e-02
 732.553  1.724e-02
 732.880  1.727e-02
 733.206  1.730e-02
 733.532  1.732e-02
 733.859  1.734e-02
 734.185  1.739e-02
 734.511  1.741e-02
 734.838  1.746e-02
 735.164  1.750e-02
 735.490  1.756e-02
 735.816  1.759e-02
 736.142  1.762e-02
 736.468  1.763e-02
 736.794  1.767e-02
 737.120  1.771e-02
 737.446  1.777e-02
 737.771  1.780e-02
 738.097  1.783e-02
 738.423  1.789e-02
 738.748  1.791e-02
 739.074  1.795e-02
 739.399  1.797e-02
 739.725  1.804e-02
 740.050  1.809e-02
 740.376  1.812e-02
 740.701  1.814e-02
 741.026  1.818e-02
 741.352  1.822e-02
 741.677  1.825e-02
 742.002  1.828e-02
 742.327  1.830e-02
 742.652  1.836e-02
 742.977  1.839e-02
 743.302  1.843e-02
 743.627  1.846e-02
 743.951  1.851e-02
 744.276  1.857e-02
 744.601  1.860e-02
 744.926  1.862e-02
 745.250  1.863e-02
 745.575  1.869e-02
 745.899  1.873e-02
 746.224  1.880e-02
 746.548  1.883e-02
 746.873  1.889e-02
 747.197  1.891e-02
 747.521  1.892e-02
 747.845  1.894e-02
 748.170  1.899e-02
 748.494  1.905e-02
 748.818  1.912e-02
 749.142  1.916e-02
 749.466  1.919e-02
 749.790  1.920e-02
 750.113  1.923e-02
 750.437  1.927e-02
 750.761  1.931e-02
 751.085  1.936e-02
 751.408  1.940e-02
 751.732  1.944e-02
 752.056  1.946e-02
 752.379  1.950e-02
 752.702  1.955e-02
 753.026  1.961e-02
 753.349  1.966e-02
 753.673  1.969e-02
 753.996  1.971e-02
 754.319  1.976e-02
 754.642  1.982e-02
 754.965  1.984e-02
 755.288  1.987e-02
 755.611  1.990e-02
 755.934  1.998e-02
 756.257  2.001e-02
 756.580  2.006e-02
 756.903  2.008e-02
 757.226  2.013e-02
 757.548  2.017e-02
 757.871  2.022e-02
 758.194  2.024e-02
 758.516  2.028e-02
 758.839  2.034e-02
 759.161  2.041e-02
 759.483  2.045e-02
 759.806  2.049e-02
 760.128  2.050e-02
 760.450  2.055e-02
 760.772  2.058e-02
 761.095  2.063e-02
 761.417  2.067e-02
 761.739  2.069e-02
 762.061  2.074e-02
 762.383  2.077e-02
 762.705  2.083e-02
 763.026  2.089e-02
 763.348  2.091e-02
 763.670  2.094e-02
 763.992  2.096e-02
 764.313  2.101e-02
 764.635  2.105e-02
 764.956  2.110e-02
 765.278  2.116e-02
 765.599  2.122e-02
 765.921  2.125e-02
 766.242  2.129e-02
 766.563  2.133e-02
 766.884  2.136e-02
 767.206  2.138e-02
 767.527  2.138e-02
 767.848  2.143e-02
 768.169  2.148e-02
 768.490  2.153e-02
 768.811  2.158e-02
 769.132  2.163e-02
 769.452  2.165e-02
 769.773  2.170e-02
 770.094  2.174e-02
 770.415  2.180e-02
 770.735  2.182e-02
 771.056  2.186e-02
 771.376  2.188e-02
 771.697  2.192e-02
 772.017  2.194e-02
 772.338  2.201e-02
 772.658  2.204e-02
 772.978  2.209e-02
 773.298  2.215e-02
 773.619  2.219e-02
 773.939  2.223e-02
 774.259  2.223e-02
 774.579  2.227e-02
 774.899  2.231e-02
 775.219  2.237e-02
 775.538  2.242e-02
 775.858  2.244e-02
 776.178  2.246e-02
 776.498  2.251e-02
 776.817  2.259e-02
 777.137  2.266e-02
 777.456  2.268e-02
 777.776  2.268e-02
 778.095  2.269e-02
 778.415  2.276e-02
 778.734  2.280e-02
 779.053  2.285e-02
 779.373  2.288e-02
 779.692  2.293e-02
 780.011  2.299e-02
 780.330  2.303e-02
 780.649  2.307e-02
 780.968  2.309e-02
 781.287  2.311e-02
 781.606  2.312e-02
 781.925  2.317e-02
 782.244  2.319e-02
 782.562  2.325e-02
 782.881  2.328e-02
 783.200  2.336e-02
 783.518  2.339e-02
 783.837  2.344e-02
 784.155  2.346e-02
 784.474  2.349e-02
 784.792  2.354e-02
 785.110  2.357e-02
 785.429  2.363e-02
 785.747  2.365e-02
 786.065  2.369e-02
 786.383  2.370e-02
 786.701  2.375e-02
 787.019  2.379e-02
 787.337  2.387e-02
 787.655  2.390e-02
 787.973  2.393e-02
 788.291  2.398e-02
 788.608  2.402e-02
 788.926  2.406e-02
 789.244  2.408e-02
 789.561  2.415e-02
 789.879  2.421e-02
 790.196  2.424e-02
 790.514  2.426e-02
 790.831  2.425e-02
 791.149  2.430e-02
 791.466  2.432e-02
 791.783  2.438e-02
 792.100  2.440e-02
 792.418  2.447e-02
 792.735  2.452e-02
 793.052  2.457e-02
 793.369  2.460e-02
 793.686  2.461e-02
 794.002  2.466e-02
 794.319  2.471e-02
 794.636  2.475e-02
 794.953  2.479e-02
 795.269  2.484e-02
 795.586  2.492e-02
 795.903  2.496e-02
 796.219  2.501e-02
 796.536  2.505e-02
 796.852  2.510e-02
 797.168  2.513e-02
 797.485  2.515e-02
 797.801  2.518e-02
 798.117  2.523e-02
 798.433  2.523e-02
 798.750  2.525e-02
 799.066  2.528e-02
 799.382  2.536e-02
 799.698  2.543e-02
 800.013  2.544e-02
 800.329  2.550e-02
 800.645  2.552e-02
 800.961  2.560e-02
 801.277  2.566e-02
 801.592  2.573e-02
 801.908  2.577e-02
 802.223  2.581e-02
 802.539  2.582e-02
 802.854  2.588e-02
 803.170  2.589e-02
 803.485  2.596e-02
 803.800  2.601e-02
 804.116  2.606e-02
 804.431  2.612e-02
 804.746  2.616e-02
 805.061  2.619e-02
 805.376  2.618e-02
 805.691  2.625e-02
 806.006  2.634e-02
 806.321  2.642e-02
 806.636  2.643e-02
 806.950  2.647e-02
 807.265  2.652e-02
 807.580  2.659e-02
 807.894  2.664e-02
 808.209  2.667e-02
 808.523  2.667e-02
 808.838  2.670e-02
 809.152  2.676e-02
 809.467  2.680e-02
 809.781  2.686e-02
 810.095  2.689e-02
 810.409  2.696e-02
 810.724  2.698e-02
 811.038  2.706e-02
 811.352  2.712e-02
 811.666  2.716e-02
 811.980  2.721e-02
 812.294  2.726e-02
 812.607  2.731e-02
 812.921  2.737e-02
 813.235  2.744e-02
 813.549  2.752e-02
 813.862  2.756e-02
 814.176  2.757e-02
 814.489  2.758e-02
 814.803  2.761e-02
 815.116  2.769e-02
 815.430  2.777e-02
 815.743  2.781e-02
 816.056  2.781e-02
 816.369  2.787e-02
 816.683  2.791e-02
 816.996  2.801e-02
 817.309  2.798e-02
 817.622  2.806e-02
 817.935  2.808e-02
 818.248  2.815e-02
 818.561  2.821e-02
 818.873  2.827e-02
 819.186  2.831e-02
 819.499  2.832e-02
 819.811  2.836e-02
 820.124  2.839e-02
 820.437  2.845e-02
 820.749  2.848e-02
 821.061  2.859e-02
 821.374  2.858e-02
 821.686  2.865e-02
 821.998  2.865e-02
 822.311  2.880e-02
 822.623  2.881e-02
 822.935  2.886e-02
 823.247  2.888e-02
 823.559  2.894e-02
 823.871  2.901e-02
 824.183  2.899e-02
 824.495  2.905e-02
 824.807  2.909e-02
 825.118  2.923e-02
 825.430  2.932e-02
 825.742  2.939e-02
 826.053  2.943e-02
 826.365  2.942e-02
 826.676  2.941e-02
 826.988  2.946e-02
 827.299  2.957e-02
 827.611  2.967e-02
 827.922  2.967e-02
 828.233  2.968e-02
 828.544  2.973e-02
 828.856  2.978e-02
 829.167  2.985e-02
 829.478  2.983e-02
 829.789  2.995e-02
 830.100  2.997e-02
 830.410  3.006e-02
 830.721  3.003e-02
 831.032  3.006e-02
 831.343  3.013e-02
 831.653  3.021e-02
 831.964  3.026e-02
 832.275  3.028e-02
 832.585  3.035e-02
 832.896  3.046e-02
 833.206  3.053e-02
 833.516  3.057e-02
 833.827  3.058e-02
 834.137  3.061e-02
 834.447  3.061e-02
 834.757  3.069e-02
 835.067  3.071e-02
 835.377  3.082e-02
 835.687  3.082e-02
 835.997  3.089e-02
 836.307  3.084e-02
 836.617  3.090e-02
 836.927  3.098e-02
 837.236  3.108e-02
 837.546  3.110e-02
 837.856  3.111e-02
 838.165  3.118e-02
 838.475  3.121e-02
 838.784  3.128e-02
 839.094  3.133e-02
 839.403  3.140e-02
 839.712  3.144e-02
 840.022  3.149e-02
 840.331  3.149e-02
 840.640  3.156e-02
 840.949  3.158e-02
 841.258  3.167e-02
 841.567  3.175e-02
 841.876  3.177e-02
 842.185  3.181e-02
 842.494  3.185e-02
 842.802  3.188e-02
 843.111  3.192e-02
 843.420  3.192e-02
 843.728  3.199e-02
 844.037  3.204e-02
 844.346  3.207e-02
 844.654  3.211e-02
 844.962  3.214e-02
 845.271  3.215e-02
 845.579  3.223e-02
 845.887  3.227e-02
 846.196  3.234e-02
 846.504  3.232e-02
 846.812  3.233e-02
 847.120  3.234e-02
 847.428  3.239e-02
 847.736  3.249e-02
 848.044  3.260e-02
 848.351  3.265e-02
 848.659  3.265e-02
 848.967  3.270e-02
 849.275  3.275e-02
 849.582  3.278e-02
 849.890  3.277e-02
 850.197  3.287e-02
 850.505  3.291e-02
 850.812  3.294e-02
 851.120  3.289e-02
 851.427  3.300e-02
 851.734  3.309e-02
 852.041  3.314e-02
 852.349  3.311e-02
 852.656  3.310e-02
 852.963  3.319e-02
 853.270  3.324e-02
 853.577  3.325e-02
 853.883  3.324e-02
 854.190  3.325e-02
 854.497  3.330e-02
 854.804  3.335e-02
 855.110  3.343e-02
 855.417  3.351e-02
 855.724  3.353e-02
 856.030  3.353e-02
 856.337  3.349e-02
 856.643  3.355e-02
 856.949  3.366e-02
 857.256  3.374e-02
 857.562  3.380e-02
 857.868  3.382e-02
 858.174  3.382e-02
 858.480  3.386e-02
 858.786  3.389e-02
 859.092  3.401e-02
 859.398  3.408e-02
 859.704  3.410e-02
 860.010  3.418e-02
 860.316  3.414e-02
 860.622  3.419e-02
 860.927  3.424e-02
 861.233  3.435e-02
 861.538  3.439e-02
 861.844  3.439e-02
 862.149  3.440e-02
 862.455  3.450e-02
 862.760  3.455e-02
 863.065  3.459e-02
 863.371  3.455e-02
 863.676  3.459e-02
 863.981  3.462e-02
 864.286  3.468e-02
 864.591  3.471e-02
 864.896  3.476e-02
 865.201  3.482e-02
 865.506  3.485e-02
 865.811  3.495e-02
 866.115  3.499e-02
 866.420  3.501e-02
 866.725  3.499e-02
 867.029  3.505e-02
 867.334  3.510e-02
 867.638  3.513e-02
 867.943  3.518e-02
 868.247  3.528e-02
 868.552  3.529e-02
 868.856  3.522e-02
 869.160  3.516e-02
 869.464  3.522e-02
 869.768  3.527e-02
 870.073  3.535e-02
 870.377  3.537e-02
 870.681  3.543e-02
 870.984  3.547e-02
 871.288  3.549e-02
 871.592  3.546e-02
 871.896  3.543e-02
 872.200  3.545e-02
 872.503  3.551e-02
 872.807  3.552e-02
 873.110  3.549e-02
 873.414  3.549e-02
 873.717  3.553e-02
 874.021  3.557e-02
 874.324  3.563e-02
 874.627  3.566e-02
 874.931  3.574e-02
 875.234  3.584e-02
 875.537  3.587e-02
 875.840  3.590e-02
 876.143  3.583e-02
 876.446  3.587e-02
 876.749  3.591e-02
 877.052  3.600e-02
 877.354  3.600e-02
 877.657  3.605e-02
 877.960  3.603e-02
 878.262  3.607e-02
 878.565  3.605e-02
 878.868  3.608e-02
 879.170  3.609e-02
 879.473  3.607e-02
 879.775  3.611e-02
 880.077  3.618e-02
 880.379  3.626e-02
 880.682  3.627e-02
 880.984  3.630e-02
 881.286  3.635e-02
 881.588  3.644e-02
 881.890  3.647e-02
 882.192  3.641e-02
 882.494  3.638e-02
 882.796  3.637e-02
 883.097  3.646e-02
 883.399  3.641e-02
 883.701  3.644e-02
 884.002  3.653e-02
 884.304  3.666e-02
 884.606  3.662e-02
 884.907  3.656e-02
 885.208  3.647e-02
 885.510  3.658e-02
 885.811  3.663e-02
 886.112  3.673e-02
 886.414  3.670e-02
 886.715  3.662e-02
 887.016  3.664e-02
 887.317  3.668e-02
 887.618  3.674e-02
 887.919  3.678e-02
 888.220  3.676e-02
 888.520  3.675e-02
 888.821  3.668e-02
 889.122  3.670e-02
 889.423  3.674e-02
 889.723  3.675e-02
 890.024  3.678e-02
 890.324  3.677e-02
 890.625  3.679e-02
 890.925  3.675e-02
 891.225  3.674e-02
 891.526  3.680e-02
 891.826  3.696e-02
 892.126  3.707e-02
 892.426  3.709e-02
 892.726  3.704e-02
 893.026  3.697e-02
 893.326  3.695e-02
 893.626  3.692e-02
 893.926  3.693e-02
 894.226  3.691e-02
 894.526  3.695e-02
 894.825  3.693e-02
 895.125  3.694e-02
 895.424  3.686e-02
 895.724  3.695e-02
 896.023  3.702e-02
 896.323  3.717e-02
 896.622  3.712e-02
 896.922  3.711e-02
 897.221  3.709e-02
 897.520  3.712e-02
 897.819  3.717e-02
 898.118  3.711e-02
 898.417  3.714e-02
 898.716  3.715e-02
 899.015  3.724e-02
 899.314  3.729e-02
 899.613  3.742e-02
 899.912  3.749e-02
 900.210  3.740e-02
 900.509  3.734e-02
 900.808  3.725e-02
 901.106  3.730e-02
 901.405  3.724e-02
 901.703  3.722e-02
 902.002  3.734e-02
 902.300  3.730e-02
 902.598  3.744e-02
 902.897  3.743e-02
 903.195  3.748e-02
 903.493  3.738e-02
 903.791  3.729e-02
 904.089  3.733e-02
 904.387  3.739e-02
 904.685  3.746e-02
 904.983  3.754e-02
 905.281  3.758e-02
 905.578  3.758e-02
 905.876  3.753e-02
 906.174  3.756e-02
 906.471  3.764e-02
 906.769  3.767e-02
 907.066  3.757e-02
 907.364  3.761e-02
 907.661  3.771e-02
 907.958  3.780e-02
 908.256  3.778e-02
 908.553  3.776e-02
 908.850  3.772e-02
 909.147  3.767e-02
 909.444  3.748e-02
 909.741  3.757e-02
 910.038  3.759e-02
 910.335  3.775e-02
 910.632  3.766e-02
 910.929  3.772e-02
 911.225  3.768e-02
 911.522  3.771e-02
 911.819  3.754e-02
 912.115  3.769e-02
 912.412  3.763e-02
 912.708  3.786e-02
 913.005  3.778e-02
 913.301  3.776e-02
 913.597  3.767e-02
 913.893  3.760e-02
 914.190  3.768e-02
 914.486  3.764e-02
 914.782  3.759e-02
 915.078  3.764e-02
 915.374  3.766e-02
 915.670  3.775e-02
 915.966  3.769e-02
 916.261  3.778e-02
 916.557  3.778e-02
 916.853  3.774e-02
 917.148  3.766e-02
 917.444  3.767e-02
 917.740  3.778e-02
 918.035  3.777e-02
 918.330  3.770e-02
 918.626  3.767e-02
 918.921  3.780e-02
 919.216  3.794e-02
 919.512  3.791e-02
 919.807  3.780e-02
 920.102  3.774e-02
 920.397  3.781e-02
 920.692  3.778e-02
 920.987  3.778e-02
 921.282  3.774e-02
 921.577  3.781e-02
 921.871  3.777e-02
 922.166  3.777e-02
 922.461  3.769e-02
 922.755  3.775e-02
 923.050  3.781e-02
 923.344  3.783e-02
 923.639  3.787e-02
 923.933  3.782e-02
 924.227  3.788e-02
 924.522  3.784e-02
 924.816  3.784e-02
 925.110  3.785e-02
 925.404  3.775e-02
 925.698  3.774e-02
 925.992  3.761e-02
 926.286  3.778e-02
 926.580  3.787e-02
 926.874  3.800e-02
 927.168  3.790e-02
 927.462  3.787e-02
 927.755  3.784e-02
 928.049  3.802e-02
 928.342  3.807e-02
 928.636  3.814e-02
 928.929  3.796e-02
 929.223  3.786e-02
 929.516  3.790e-02
 929.810  3.797e-02
 930.103  3.810e-02
 930.396  3.811e-02
 930.689  3.808e-02
 930.982  3.803e-02
 931.275  3.787e-02
 931.568  3.780e-02
 931.861  3.778e-02
 932.154  3.790e-02
 932.447  3.797e-02
 932.740  3.797e-02
 933.032  3.802e-02
 933.325  3.816e-02
 933.617  3.811e-02
 933.910  3.794e-02
 934.202  3.783e-02
 934.495  3.800e-02
 934.787  3.812e-02
 935.080  3.810e-02
 935.372  3.796e-02
 935.664  3.786e-02
 935.956  3.782e-02
 936.248  3.796e-02
 936.540  3.805e-02
 936.832  3.795e-02
 937.124  3.767e-02
 937.416  3.761e-02
 937.708  3.788e-02
 938.000  3.806e-02
 938.291  3.814e-02
 938.583  3.799e-02
 938.875  3.798e-02
 939.166  3.797e-02
 939.458  3.797e-02
 939.749  3.800e-02
 940.041  3.803e-02
 940.332  3.805e-02
 940.623  3.794e-02
 940.914  3.793e-02
 941.206  3.808e-02
 941.497  3.826e-02
 941.788  3.821e-02
 942.079  3.808e-02
 942.370  3.789e-02
 942.661  3.779e-02
 942.951  3.793e-02
 943.242  3.792e-02
 943.533  3.815e-02
 943.824  3.794e-02
 944.114  3.814e-02
 944.405  3.803e-02
 944.695  3.814e-02
 944.986  3.811e-02
 945.276  3.821e-02
 945.566  3.848e-02
 945.857  3.852e-02
 946.147  3.851e-02
 946.437  3.825e-02
 946.727  3.818e-02
 947.017  3.819e-02
 947.307  3.842e-02
 947.597  3.832e-02
 947.887  3.829e-02
 948.177  3.817e-02
 948.467  3.848e-02
 948.757  3.872e-02
 949.046  3.878e-02
 949.336  3.873e-02
 949.625  3.844e-02
 949.915  3.831e-02
 950.204  3.816e-02
 950.494  3.821e-02
 950.783        NaN
 951.072        NaN
 951.362        NaN
 951.651        NaN
 951.940        NaN
 952.229        NaN
 952.518        NaN
 952.807        NaN
 953.096        NaN
 953.385        NaN
 953.674        NaN
 953.962        NaN
 954.251        NaN
 954.540        NaN
 954.828        NaN
 955.117        NaN
 955.405        NaN
 955.694        NaN
 955.982        NaN
 956.270        NaN
 956.559        NaN
 956.847        NaN
 957.135        NaN
 957.423        NaN
 957.711        NaN
 957.999        NaN
 958.287        NaN
 958.575        NaN
 958.863        NaN
 959.150        NaN
 959.438        NaN
 959.726        NaN
 960.013        NaN
 960.301        NaN
 960.588        NaN
 960.876        NaN
 961.163        NaN
 961.450        NaN
 961.738        NaN
 962.025        NaN
 962.312        NaN
 962.599        NaN
 962.886        NaN
 963.173        NaN
 963.460        NaN
 963.747        NaN
 964.034        NaN
 964.320        NaN
 964.607        NaN
 964.894        NaN
 965.180        NaN
 965.467        NaN
 965.753        NaN
 966.040        NaN
 966.326        NaN
 966.612        NaN
 966.899        NaN
 967.185        NaN
 967.471        NaN
 967.757        NaN
 968.043        NaN
 968.329        NaN
 968.615        NaN
 968.901        NaN
 969.187        NaN
 969.472        NaN
 969.758        NaN
 970.044        NaN
 970.329        NaN
 970.615        NaN
 970.900        NaN
 971.186        NaN
 971.471        NaN
 971.756        NaN
 972.042        NaN
 972.327        NaN
 972.612        NaN
 972.897        NaN
 973.182        NaN
 973.467        NaN
 973.752        NaN
 974.037        NaN
 974.322        NaN
 974.606        NaN
 974.891        NaN
 975.176        NaN
 975.460        NaN
 975.745        NaN
 976.029        NaN
 976.314        NaN
 976.598        NaN
 976.882        NaN
 977.167        NaN
 977.451        NaN
 977.735        NaN
 978.019        NaN
 978.303        NaN
 978.587        NaN
 978.871        NaN
 979.155        NaN
 979.439        NaN
 979.722        NaN
 980.006        NaN
 980.290        NaN
 980.573        NaN
 980.857        NaN
 981.140        NaN
 981.424        NaN
 981.707        NaN
 981.990        NaN
 982.273        NaN
 982.557        NaN
 982.840        NaN
 983.123        NaN
 983.406        NaN
 983.689        NaN
 983.972        NaN
 984.255        NaN
 984.537        NaN
 984.820        NaN
 985.103        NaN
 985.385        NaN
 985.668        NaN
 985.951        NaN
 986.233        NaN
 986.515        NaN
 986.798        NaN
 987.080        NaN
 987.362        NaN
 987.644        NaN
 987.927        NaN
 988.209        NaN
 988.491        NaN
 988.773        NaN
 989.055        NaN
 989.336        NaN
 989.618        NaN
 989.900        NaN
 990.182        NaN
 990.463        NaN
 990.745        NaN
 991.026        NaN
 991.308        NaN
 991.589        NaN
 991.870        NaN
 992.152        NaN
 992.433        NaN
 992.714        NaN
 992.995        NaN
 993.276        NaN
 993.557        NaN
 993.838        NaN
 994.119        NaN
 994.400        NaN
 994.681        NaN
 994.961        NaN
 995.242        NaN
 995.523        NaN
 995.803        NaN
 996.084        NaN
 996.364        NaN
 996.645        NaN
 996.925        NaN
 997.205        NaN
 997.485        NaN
 997.766        NaN
 998.046        NaN
 998.326        NaN
 998.606        NaN
 998.886        NaN
 999.166        NaN
 999.445        NaN
 999.725        NaN
1000.005        NaN
1000.284        NaN
1000.564        NaN
1000.844        NaN
1001.123        NaN
1001.402        NaN
1001.682        NaN
1001.961        NaN
1002.240        NaN
1002.520        NaN
1002.799        NaN
1003.078        NaN
1003.357        NaN
1003.636        NaN
1003.915        NaN
1004.194        NaN
1004.472        NaN
1004.751        NaN
1005.030        NaN
1005.309        NaN
1005.587        NaN
1005.866        NaN
1006.144        NaN
1006.422        NaN
1006.701        NaN
1006.979        NaN
1007.257        NaN
1007.536        NaN
1007.814        NaN
1008.092        NaN
1008.370        NaN
1008.648        NaN
1008.926        NaN
1009.203        NaN
1009.481        NaN
1009.759        NaN
1010.037        NaN
1010.314        NaN
1010.592        NaN
1010.869        NaN
1011.147        NaN
1011.424        NaN
1011.701        NaN
1011.979        NaN
1012.256        NaN
1012.533        NaN
1012.810        NaN
1013.087        NaN
1013.364        NaN
1013.641        NaN
1013.918       -NaN
1014.195        NaN
