Data from ha06_a68L_FLMS070571_001.txt Node
Date: Tue Apr 10 17:18:17 EDT 2018
User: peter
Spectrometer: FLMS07057
Trigger mode: 0
Integration Time (sec): 4.000000E-1
Scans to average: 8
Electric dark correction enabled: true
Nonlinearity correction enabled: false
Boxcar width: 0
XAxis mode: Wavelengths
Number of Pixels in Spectrum: 2048
>>>>>Begin Spectral Data<<<<<
 339.015  2.352e-02
 339.393  2.352e-02
 339.770  1.849e-02
 340.148  9.991e-03
 340.526 -8.560e-05
 340.904  3.811e-03
 341.281  4.701e-03
 341.659  5.830e-03
 342.036  1.381e-03
 342.414  1.951e-04
 342.791 -1.206e-02
 343.169 -5.801e-02
 343.546 -6.176e-02
 343.923 -6.524e-02
 344.301 -2.428e-02
 344.678 -2.157e-02
 345.055 -7.910e-03
 345.432 -9.395e-03
 345.810 -1.466e-02
 346.187 -1.070e-02
 346.564 -6.725e-03
 346.941  8.821e-04
 347.318  1.999e-03
 347.695  3.164e-03
 348.071  3.764e-03
 348.448  2.341e-03
 348.825  1.969e-03
 349.202  1.602e-03
 349.578  1.986e-03
 349.955  1.933e-03
 350.332  2.017e-03
 350.708  1.468e-03
 351.085  1.407e-03
 351.461  1.252e-03
 351.838  1.736e-03
 352.214  1.757e-03
 352.591  1.688e-03
 352.967  1.413e-03
 353.343  1.391e-03
 353.719  1.474e-03
 354.096  1.626e-03
 354.472  1.758e-03
 354.848  1.789e-03
 355.224  1.566e-03
 355.600  1.597e-03
 355.976  1.684e-03
 356.352  1.758e-03
 356.728  1.733e-03
 357.104  1.656e-03
 357.479  1.649e-03
 357.855  1.468e-03
 358.231  1.326e-03
 358.607  1.253e-03
 358.982  1.251e-03
 359.358  1.259e-03
 359.734  1.242e-03
 360.109  1.231e-03
 360.484  1.203e-03
 360.860  1.143e-03
 361.235  1.146e-03
 361.611  1.140e-03
 361.986  1.122e-03
 362.361  9.824e-04
 362.736  9.191e-04
 363.112  8.551e-04
 363.487  7.890e-04
 363.862  7.487e-04
 364.237  9.236e-04
 364.612  1.066e-03
 364.987  1.110e-03
 365.362  9.788e-04
 365.737  9.358e-04
 366.112  9.067e-04
 366.486  9.260e-04
 366.861  9.462e-04
 367.236  9.007e-04
 367.610  8.793e-04
 367.985  9.076e-04
 368.360  9.257e-04
 368.734  8.353e-04
 369.109  7.682e-04
 369.483  6.779e-04
 369.858  6.491e-04
 370.232  6.549e-04
 370.606  6.899e-04
 370.981  6.987e-04
 371.355  7.430e-04
 371.729  7.328e-04
 372.103  7.470e-04
 372.477  7.125e-04
 372.851  7.376e-04
 373.225  6.727e-04
 373.599  6.087e-04
 373.973  6.181e-04
 374.347  6.420e-04
 374.721  6.385e-04
 375.095  5.681e-04
 375.469  5.653e-04
 375.842  5.509e-04
 376.216  5.399e-04
 376.590  5.460e-04
 376.963  5.718e-04
 377.337  5.967e-04
 377.710  5.602e-04
 378.084  4.987e-04
 378.457  4.355e-04
 378.831  4.567e-04
 379.204  4.697e-04
 379.577  5.316e-04
 379.951  5.331e-04
 380.324  5.206e-04
 380.697  5.154e-04
 381.070  5.223e-04
 381.443  5.141e-04
 381.816  4.819e-04
 382.189  4.278e-04
 382.562  3.909e-04
 382.935  4.066e-04
 383.308  4.035e-04
 383.681  4.542e-04
 384.054  4.198e-04
 384.426  4.323e-04
 384.799  3.941e-04
 385.172  3.855e-04
 385.544  3.396e-04
 385.917  3.413e-04
 386.290  3.707e-04
 386.662  3.716e-04
 387.034  4.036e-04
 387.407  3.588e-04
 387.779  3.919e-04
 388.152  3.312e-04
 388.524  3.326e-04
 388.896  3.484e-04
 389.268  3.513e-04
 389.640  3.712e-04
 390.013  3.569e-04
 390.385  3.352e-04
 390.757  2.895e-04
 391.129  2.625e-04
 391.500  2.745e-04
 391.872  3.022e-04
 392.244  3.275e-04
 392.616  3.329e-04
 392.988  3.105e-04
 393.360  2.981e-04
 393.731  2.843e-04
 394.103  2.993e-04
 394.474  3.001e-04
 394.846  3.039e-04
 395.217  2.770e-04
 395.589  2.522e-04
 395.960  2.813e-04
 396.332  3.009e-04
 396.703  2.911e-04
 397.074  2.680e-04
 397.446  2.564e-04
 397.817  2.701e-04
 398.188  2.650e-04
 398.559  2.687e-04
 398.930  2.393e-04
 399.301  2.258e-04
 399.672  2.318e-04
 400.043  2.501e-04
 400.414  2.707e-04
 400.785  2.592e-04
 401.156  2.690e-04
 401.526  2.706e-04
 401.897  2.523e-04
 402.268  2.400e-04
 402.638  2.066e-04
 403.009  2.190e-04
 403.380  2.065e-04
 403.750  2.150e-04
 404.121  1.871e-04
 404.491  1.940e-04
 404.861  1.837e-04
 405.232  2.193e-04
 405.602  2.189e-04
 405.972  2.292e-04
 406.342  2.091e-04
 406.713  2.075e-04
 407.083  2.182e-04
 407.453  2.320e-04
 407.823  2.359e-04
 408.193  2.293e-04
 408.563  2.115e-04
 408.933  1.934e-04
 409.302  1.902e-04
 409.672  1.717e-04
 410.042  1.760e-04
 410.412  1.595e-04
 410.781  1.769e-04
 411.151  1.837e-04
 411.521  1.860e-04
 411.890  1.904e-04
 412.260  1.878e-04
 412.629  1.950e-04
 412.999  1.886e-04
 413.368  1.983e-04
 413.737  1.914e-04
 414.107  1.895e-04
 414.476  1.809e-04
 414.845  1.909e-04
 415.214  1.987e-04
 415.583  1.999e-04
 415.952  1.824e-04
 416.322  1.833e-04
 416.691  1.714e-04
 417.059  1.790e-04
 417.428  1.710e-04
 417.797  1.741e-04
 418.166  1.700e-04
 418.535  1.699e-04
 418.904  1.751e-04
 419.272  1.822e-04
 419.641  1.828e-04
 420.009  1.822e-04
 420.378  1.771e-04
 420.747  1.751e-04
 421.115  1.799e-04
 421.483  1.752e-04
 421.852  1.696e-04
 422.220  1.559e-04
 422.588  1.523e-04
 422.957  1.461e-04
 423.325  1.472e-04
 423.693  1.447e-04
 424.061  1.550e-04
 424.429  1.554e-04
 424.797  1.612e-04
 425.165  1.635e-04
 425.533  1.625e-04
 425.901  1.607e-04
 426.269  1.550e-04
 426.637  1.518e-04
 427.005  1.439e-04
 427.372  1.480e-04
 427.740  1.422e-04
 428.108  1.508e-04
 428.475  1.460e-04
 428.843  1.498e-04
 429.210  1.463e-04
 429.578  1.431e-04
 429.945  1.484e-04
 430.312  1.465e-04
 430.680  1.564e-04
 431.047  1.501e-04
 431.414  1.600e-04
 431.782  1.512e-04
 432.149  1.588e-04
 432.516  1.484e-04
 432.883  1.418e-04
 433.250  1.330e-04
 433.617  1.328e-04
 433.984  1.392e-04
 434.351  1.311e-04
 434.718  1.306e-04
 435.084  1.249e-04
 435.451  1.362e-04
 435.818  1.414e-04
 436.184  1.400e-04
 436.551  1.403e-04
 436.918  1.332e-04
 437.284  1.338e-04
 437.651  1.297e-04
 438.017  1.354e-04
 438.384  1.339e-04
 438.750  1.316e-04
 439.116  1.225e-04
 439.483  1.280e-04
 439.849  1.237e-04
 440.215  1.344e-04
 440.581  1.333e-04
 440.947  1.377e-04
 441.313  1.310e-04
 441.679  1.299e-04
 442.045  1.307e-04
 442.411  1.290e-04
 442.777  1.273e-04
 443.143  1.265e-04
 443.509  1.283e-04
 443.874  1.270e-04
 444.240  1.303e-04
 444.606  1.298e-04
 444.971  1.377e-04
 445.337  1.318e-04
 445.703  1.310e-04
 446.068  1.246e-04
 446.433  1.251e-04
 446.799  1.277e-04
 447.164  1.353e-04
 447.530  1.447e-04
 447.895  1.442e-04
 448.260  1.328e-04
 448.625  1.268e-04
 448.990  1.303e-04
 449.355  1.333e-04
 449.720  1.286e-04
 450.085  1.255e-04
 450.450  1.321e-04
 450.815  1.381e-04
 451.180  1.355e-04
 451.545  1.331e-04
 451.910  1.317e-04
 452.275  1.327e-04
 452.639  1.311e-04
 453.004  1.306e-04
 453.369  1.380e-04
 453.733  1.396e-04
 454.098  1.413e-04
 454.462  1.382e-04
 454.826  1.373e-04
 455.191  1.356e-04
 455.555  1.306e-04
 455.919  1.274e-04
 456.284  1.306e-04
 456.648  1.342e-04
 457.012  1.362e-04
 457.376  1.345e-04
 457.740  1.306e-04
 458.104  1.390e-04
 458.468  1.367e-04
 458.832  1.443e-04
 459.196  1.345e-04
 459.560  1.410e-04
 459.924  1.370e-04
 460.288  1.410e-04
 460.651  1.357e-04
 461.015  1.382e-04
 461.379  1.421e-04
 461.742  1.415e-04
 462.106  1.403e-04
 462.469  1.396e-04
 462.833  1.433e-04
 463.196  1.416e-04
 463.559  1.417e-04
 463.923  1.370e-04
 464.286  1.367e-04
 464.649  1.324e-04
 465.012  1.371e-04
 465.376  1.356e-04
 465.739  1.329e-04
 466.102  1.318e-04
 466.465  1.334e-04
 466.828  1.400e-04
 467.191  1.435e-04
 467.553  1.449e-04
 467.916  1.432e-04
 468.279  1.387e-04
 468.642  1.398e-04
 469.004  1.400e-04
 469.367  1.435e-04
 469.730  1.435e-04
 470.092  1.423e-04
 470.455  1.375e-04
 470.817  1.386e-04
 471.180  1.412e-04
 471.542  1.402e-04
 471.904  1.374e-04
 472.267  1.304e-04
 472.629  1.317e-04
 472.991  1.282e-04
 473.353  1.325e-04
 473.715  1.333e-04
 474.078  1.362e-04
 474.440  1.348e-04
 474.802  1.347e-04
 475.163  1.317e-04
 475.525  1.319e-04
 475.887  1.287e-04
 476.249  1.303e-04
 476.611  1.280e-04
 476.972  1.309e-04
 477.334  1.285e-04
 477.696  1.316e-04
 478.057  1.316e-04
 478.419  1.359e-04
 478.780  1.365e-04
 479.142  1.341e-04
 479.503  1.333e-04
 479.865  1.338e-04
 480.226  1.352e-04
 480.587  1.341e-04
 480.948  1.339e-04
 481.310  1.329e-04
 481.671  1.328e-04
 482.032  1.310e-04
 482.393  1.335e-04
 482.754  1.340e-04
 483.115  1.336e-04
 483.476  1.321e-04
 483.837  1.325e-04
 484.197  1.322e-04
 484.558  1.318e-04
 484.919  1.335e-04
 485.280  1.347e-04
 485.640  1.362e-04
 486.001  1.356e-04
 486.361  1.362e-04
 486.722  1.375e-04
 487.082  1.376e-04
 487.443  1.373e-04
 487.803  1.398e-04
 488.163  1.401e-04
 488.524  1.403e-04
 488.884  1.349e-04
 489.244  1.356e-04
 489.604  1.356e-04
 489.964  1.391e-04
 490.324  1.388e-04
 490.684  1.398e-04
 491.044  1.387e-04
 491.404  1.387e-04
 491.764  1.394e-04
 492.124  1.411e-04
 492.484  1.428e-04
 492.843  1.430e-04
 493.203  1.432e-04
 493.563  1.424e-04
 493.922  1.419e-04
 494.282  1.427e-04
 494.642  1.436e-04
 495.001  1.450e-04
 495.360  1.444e-04
 495.720  1.442e-04
 496.079  1.448e-04
 496.438  1.475e-04
 496.798  1.505e-04
 497.157  1.530e-04
 497.516  1.531e-04
 497.875  1.509e-04
 498.234  1.511e-04
 498.593  1.509e-04
 498.952  1.541e-04
 499.311  1.546e-04
 499.670  1.559e-04
 500.029  1.563e-04
 500.388  1.555e-04
 500.746  1.553e-04
 501.105  1.547e-04
 501.464  1.574e-04
 501.822  1.593e-04
 502.181  1.620e-04
 502.539  1.623e-04
 502.898  1.625e-04
 503.256  1.619e-04
 503.615  1.635e-04
 503.973  1.639e-04
 504.331  1.670e-04
 504.690  1.672e-04
 505.048  1.682e-04
 505.406  1.676e-04
 505.764  1.679e-04
 506.122  1.701e-04
 506.480  1.722e-04
 506.838  1.739e-04
 507.196  1.754e-04
 507.554  1.756e-04
 507.912  1.762e-04
 508.270  1.761e-04
 508.627  1.759e-04
 508.985  1.772e-04
 509.343  1.788e-04
 509.700  1.798e-04
 510.058  1.809e-04
 510.415  1.817e-04
 510.773  1.831e-04
 511.130  1.833e-04
 511.488  1.846e-04
 511.845  1.869e-04
 512.202  1.883e-04
 512.560  1.897e-04
 512.917  1.889e-04
 513.274  1.891e-04
 513.631  1.896e-04
 513.988  1.915e-04
 514.345  1.938e-04
 514.702  1.931e-04
 515.059  1.946e-04
 515.416  1.944e-04
 515.773  1.966e-04
 516.130  1.964e-04
 516.486  1.985e-04
 516.843  1.995e-04
 517.200  2.018e-04
 517.556  2.025e-04
 517.913  2.019e-04
 518.269  2.035e-04
 518.626  2.046e-04
 518.982  2.090e-04
 519.339  2.090e-04
 519.695  2.109e-04
 520.051  2.099e-04
 520.408  2.107e-04
 520.764  2.108e-04
 521.120  2.122e-04
 521.476  2.130e-04
 521.832  2.143e-04
 522.188  2.154e-04
 522.544  2.182e-04
 522.900  2.186e-04
 523.256  2.200e-04
 523.612  2.198e-04
 523.968  2.220e-04
 524.323  2.229e-04
 524.679  2.234e-04
 525.035  2.238e-04
 525.390  2.253e-04
 525.746  2.263e-04
 526.102  2.281e-04
 526.457  2.285e-04
 526.812  2.300e-04
 527.168  2.308e-04
 527.523  2.321e-04
 527.878  2.337e-04
 528.234  2.350e-04
 528.589  2.361e-04
 528.944  2.365e-04
 529.299  2.376e-04
 529.654  2.393e-04
 530.009  2.414e-04
 530.364  2.423e-04
 530.719  2.431e-04
 531.074  2.447e-04
 531.429  2.448e-04
 531.784  2.459e-04
 532.138  2.460e-04
 532.493  2.487e-04
 532.848  2.489e-04
 533.202  2.500e-04
 533.557  2.517e-04
 533.911  2.553e-04
 534.266  2.571e-04
 534.620  2.580e-04
 534.975  2.583e-04
 535.329  2.596e-04
 535.683  2.622e-04
 536.038  2.641e-04
 536.392  2.666e-04
 536.746  2.670e-04
 537.100  2.670e-04
 537.454  2.674e-04
 537.808  2.682e-04
 538.162  2.701e-04
 538.516  2.729e-04
 538.870  2.754e-04
 539.224  2.771e-04
 539.577  2.777e-04
 539.931  2.791e-04
 540.285  2.801e-04
 540.639  2.825e-04
 540.992  2.837e-04
 541.346  2.877e-04
 541.699  2.889e-04
 542.053  2.918e-04
 542.406  2.932e-04
 542.759  2.957e-04
 543.113  2.969e-04
 543.466  2.985e-04
 543.819  3.010e-04
 544.172  3.034e-04
 544.526  3.059e-04
 544.879  3.074e-04
 545.232  3.112e-04
 545.585  3.130e-04
 545.938  3.152e-04
 546.291  3.156e-04
 546.643  3.193e-04
 546.996  3.215e-04
 547.349  3.238e-04
 547.702  3.268e-04
 548.054  3.309e-04
 548.407  3.350e-04
 548.760  3.366e-04
 549.112  3.387e-04
 549.465  3.409e-04
 549.817  3.442e-04
 550.169  3.484e-04
 550.522  3.526e-04
 550.874  3.560e-04
 551.226  3.570e-04
 551.579  3.592e-04
 551.931  3.621e-04
 552.283  3.672e-04
 552.635  3.703e-04
 552.987  3.737e-04
 553.339  3.769e-04
 553.691  3.810e-04
 554.043  3.852e-04
 554.395  3.884e-04
 554.746  3.920e-04
 555.098  3.944e-04
 555.450  3.989e-04
 555.802  4.038e-04
 556.153  4.084e-04
 556.505  4.118e-04
 556.856  4.154e-04
 557.208  4.196e-04
 557.559  4.251e-04
 557.911  4.280e-04
 558.262  4.325e-04
 558.613  4.375e-04
 558.964  4.419e-04
 559.316  4.471e-04
 559.667  4.501e-04
 560.018  4.559e-04
 560.369  4.585e-04
 560.720  4.622e-04
 561.071  4.662e-04
 561.422  4.725e-04
 561.773  4.786e-04
 562.124  4.841e-04
 562.474  4.877e-04
 562.825  4.928e-04
 563.176  4.974e-04
 563.526  5.028e-04
 563.877  5.067e-04
 564.228  5.115e-04
 564.578  5.164e-04
 564.928  5.219e-04
 565.279  5.283e-04
 565.629  5.333e-04
 565.980  5.388e-04
 566.330  5.444e-04
 566.680  5.504e-04
 567.030  5.566e-04
 567.380  5.610e-04
 567.730  5.679e-04
 568.080  5.751e-04
 568.430  5.814e-04
 568.780  5.877e-04
 569.130  5.920e-04
 569.480  5.994e-04
 569.830  6.055e-04
 570.180  6.120e-04
 570.529  6.173e-04
 570.879  6.239e-04
 571.229  6.309e-04
 571.578  6.383e-04
 571.928  6.431e-04
 572.277  6.487e-04
 572.627  6.526e-04
 572.976  6.601e-04
 573.325  6.658e-04
 573.675  6.740e-04
 574.024  6.804e-04
 574.373  6.881e-04
 574.722  6.954e-04
 575.071  7.011e-04
 575.420  7.082e-04
 575.769  7.143e-04
 576.118  7.214e-04
 576.467  7.282e-04
 576.816  7.367e-04
 577.165  7.464e-04
 577.514  7.539e-04
 577.863  7.625e-04
 578.211  7.678e-04
 578.560  7.747e-04
 578.908  7.802e-04
 579.257  7.899e-04
 579.606  7.994e-04
 579.954  8.060e-04
 580.302  8.120e-04
 580.651  8.193e-04
 580.999  8.272e-04
 581.347  8.353e-04
 581.696  8.396e-04
 582.044  8.500e-04
 582.392  8.581e-04
 582.740  8.675e-04
 583.088  8.742e-04
 583.436  8.803e-04
 583.784  8.886e-04
 584.132  8.967e-04
 584.480  9.058e-04
 584.827  9.144e-04
 585.175  9.196e-04
 585.523  9.272e-04
 585.870  9.342e-04
 586.218  9.447e-04
 586.566  9.536e-04
 586.913  9.628e-04
 587.261  9.714e-04
 587.608  9.814e-04
 587.955  9.893e-04
 588.303  9.961e-04
 588.650  1.003e-03
 588.997  1.010e-03
 589.344  1.019e-03
 589.692  1.027e-03
 590.039  1.036e-03
 590.386  1.044e-03
 590.733  1.052e-03
 591.080  1.060e-03
 591.427  1.069e-03
 591.773  1.076e-03
 592.120  1.085e-03
 592.467  1.091e-03
 592.814  1.100e-03
 593.160  1.109e-03
 593.507  1.116e-03
 593.854  1.124e-03
 594.200  1.132e-03
 594.547  1.140e-03
 594.893  1.149e-03
 595.239  1.157e-03
 595.586  1.166e-03
 595.932  1.174e-03
 596.278  1.182e-03
 596.624  1.188e-03
 596.971  1.195e-03
 597.317  1.203e-03
 597.663  1.212e-03
 598.009  1.218e-03
 598.355  1.227e-03
 598.701  1.235e-03
 599.046  1.243e-03
 599.392  1.248e-03
 599.738  1.252e-03
 600.084  1.261e-03
 600.429  1.268e-03
 600.775  1.279e-03
 601.121  1.284e-03
 601.466  1.291e-03
 601.812  1.298e-03
 602.157  1.306e-03
 602.503  1.312e-03
 602.848  1.318e-03
 603.193  1.324e-03
 603.538  1.329e-03
 603.884  1.336e-03
 604.229  1.343e-03
 604.574  1.351e-03
 604.919  1.358e-03
 605.264  1.365e-03
 605.609  1.372e-03
 605.954  1.377e-03
 606.299  1.383e-03
 606.644  1.390e-03
 606.988  1.396e-03
 607.333  1.402e-03
 607.678  1.408e-03
 608.022  1.414e-03
 608.367  1.420e-03
 608.712  1.424e-03
 609.056  1.431e-03
 609.400  1.436e-03
 609.745  1.445e-03
 610.089  1.450e-03
 610.434  1.457e-03
 610.778  1.464e-03
 611.122  1.469e-03
 611.466  1.474e-03
 611.810  1.480e-03
 612.154  1.487e-03
 612.498  1.491e-03
 612.842  1.495e-03
 613.186  1.504e-03
 613.530  1.512e-03
 613.874  1.518e-03
 614.218  1.519e-03
 614.561  1.523e-03
 614.905  1.530e-03
 615.249  1.538e-03
 615.592  1.547e-03
 615.936  1.550e-03
 616.279  1.553e-03
 616.623  1.559e-03
 616.966  1.566e-03
 617.310  1.572e-03
 617.653  1.575e-03
 617.996  1.579e-03
 618.339  1.586e-03
 618.683  1.591e-03
 619.026  1.594e-03
 619.369  1.598e-03
 619.712  1.606e-03
 620.055  1.611e-03
 620.398  1.614e-03
 620.741  1.615e-03
 621.083  1.620e-03
 621.426  1.625e-03
 621.769  1.631e-03
 622.112  1.636e-03
 622.454  1.642e-03
 622.797  1.647e-03
 623.139  1.651e-03
 623.482  1.656e-03
 623.824  1.662e-03
 624.167  1.669e-03
 624.509  1.675e-03
 624.851  1.680e-03
 625.194  1.682e-03
 625.536  1.688e-03
 625.878  1.692e-03
 626.220  1.697e-03
 626.562  1.700e-03
 626.904  1.707e-03
 627.246  1.714e-03
 627.588  1.719e-03
 627.930  1.722e-03
 628.272  1.723e-03
 628.614  1.728e-03
 628.955  1.735e-03
 629.297  1.742e-03
 629.639  1.745e-03
 629.980  1.749e-03
 630.322  1.756e-03
 630.663  1.760e-03
 631.005  1.768e-03
 631.346  1.773e-03
 631.688  1.777e-03
 632.029  1.778e-03
 632.370  1.783e-03
 632.711  1.789e-03
 633.052  1.795e-03
 633.394  1.799e-03
 633.735  1.805e-03
 634.076  1.806e-03
 634.417  1.811e-03
 634.758  1.815e-03
 635.098  1.821e-03
 635.439  1.827e-03
 635.780  1.830e-03
 636.121  1.837e-03
 636.461  1.843e-03
 636.802  1.846e-03
 637.143  1.849e-03
 637.483  1.853e-03
 637.824  1.859e-03
 638.164  1.863e-03
 638.505  1.867e-03
 638.845  1.869e-03
 639.185  1.875e-03
 639.525  1.877e-03
 639.866  1.879e-03
 640.206  1.882e-03
 640.546  1.888e-03
 640.886  1.893e-03
 641.226  1.898e-03
 641.566  1.898e-03
 641.906  1.902e-03
 642.246  1.904e-03
 642.585  1.905e-03
 642.925  1.907e-03
 643.265  1.909e-03
 643.605  1.916e-03
 643.944  1.920e-03
 644.284  1.921e-03
 644.623  1.920e-03
 644.963  1.921e-03
 645.302  1.927e-03
 645.642  1.929e-03
 645.981  1.932e-03
 646.320  1.935e-03
 646.660  1.939e-03
 646.999  1.941e-03
 647.338  1.948e-03
 647.677  1.953e-03
 648.016  1.956e-03
 648.355  1.955e-03
 648.694  1.957e-03
 649.033  1.962e-03
 649.372  1.967e-03
 649.711  1.971e-03
 650.049  1.975e-03
 650.388  1.980e-03
 650.727  1.984e-03
 651.065  1.987e-03
 651.404  1.992e-03
 651.742  1.997e-03
 652.081  2.005e-03
 652.419  2.011e-03
 652.758  2.017e-03
 653.096  2.022e-03
 653.434  2.025e-03
 653.772  2.028e-03
 654.111  2.030e-03
 654.449  2.034e-03
 654.787  2.039e-03
 655.125  2.042e-03
 655.463  2.047e-03
 655.801  2.050e-03
 656.139  2.056e-03
 656.476  2.060e-03
 656.814  2.060e-03
 657.152  2.064e-03
 657.490  2.067e-03
 657.827  2.070e-03
 658.165  2.072e-03
 658.503  2.073e-03
 658.840  2.076e-03
 659.177  2.077e-03
 659.515  2.079e-03
 659.852  2.076e-03
 660.190  2.079e-03
 660.527  2.079e-03
 660.864  2.084e-03
 661.201  2.080e-03
 661.538  2.078e-03
 661.875  2.077e-03
 662.212  2.077e-03
 662.549  2.078e-03
 662.886  2.078e-03
 663.223  2.076e-03
 663.560  2.076e-03
 663.897  2.074e-03
 664.233  2.071e-03
 664.570  2.066e-03
 664.907  2.061e-03
 665.243  2.061e-03
 665.580  2.062e-03
 665.916  2.060e-03
 666.253  2.058e-03
 666.589  2.055e-03
 666.925  2.054e-03
 667.262  2.052e-03
 667.598  2.052e-03
 667.934  2.051e-03
 668.270  2.053e-03
 668.606  2.053e-03
 668.942  2.059e-03
 669.278  2.059e-03
 669.614  2.059e-03
 669.950  2.054e-03
 670.286  2.057e-03
 670.622  2.059e-03
 670.958  2.061e-03
 671.293  2.061e-03
 671.629  2.066e-03
 671.965  2.071e-03
 672.300  2.073e-03
 672.636  2.073e-03
 672.971  2.069e-03
 673.307  2.074e-03
 673.642  2.081e-03
 673.977  2.091e-03
 674.313  2.094e-03
 674.648  2.097e-03
 674.983  2.102e-03
 675.318  2.106e-03
 675.653  2.114e-03
 675.988  2.120e-03
 676.323  2.131e-03
 676.658  2.141e-03
 676.993  2.144e-03
 677.328  2.150e-03
 677.663  2.158e-03
 677.997  2.171e-03
 678.332  2.181e-03
 678.667  2.190e-03
 679.001  2.199e-03
 679.336  2.213e-03
 679.670  2.224e-03
 680.005  2.238e-03
 680.339  2.246e-03
 680.673  2.262e-03
 681.008  2.274e-03
 681.342  2.291e-03
 681.676  2.306e-03
 682.010  2.327e-03
 682.344  2.344e-03
 682.678  2.364e-03
 683.012  2.382e-03
 683.346  2.401e-03
 683.680  2.417e-03
 684.014  2.434e-03
 684.348  2.452e-03
 684.682  2.475e-03
 685.015  2.497e-03
 685.349  2.519e-03
 685.682  2.537e-03
 686.016  2.557e-03
 686.350  2.582e-03
 686.683  2.605e-03
 687.016  2.629e-03
 687.350  2.651e-03
 687.683  2.674e-03
 688.016  2.700e-03
 688.350  2.724e-03
 688.683  2.745e-03
 689.016  2.763e-03
 689.349  2.786e-03
 689.682  2.808e-03
 690.015  2.830e-03
 690.348  2.848e-03
 690.681  2.869e-03
 691.013  2.890e-03
 691.346  2.916e-03
 691.679  2.935e-03
 692.012  2.954e-03
 692.344  2.967e-03
 692.677  2.990e-03
 693.009  3.012e-03
 693.342  3.033e-03
 693.674  3.057e-03
 694.007  3.073e-03
 694.339  3.093e-03
 694.671  3.103e-03
 695.003  3.118e-03
 695.336  3.133e-03
 695.668  3.150e-03
 696.000  3.163e-03
 696.332  3.176e-03
 696.664  3.193e-03
 696.996  3.209e-03
 697.328  3.229e-03
 697.659  3.247e-03
 697.991  3.266e-03
 698.323  3.279e-03
 698.655  3.288e-03
 698.986  3.300e-03
 699.318  3.316e-03
 699.649  3.334e-03
 699.981  3.347e-03
 700.312  3.360e-03
 700.644  3.369e-03
 700.975  3.381e-03
 701.306  3.395e-03
 701.638  3.412e-03
 701.969  3.424e-03
 702.300  3.434e-03
 702.631  3.445e-03
 702.962  3.458e-03
 703.293  3.472e-03
 703.624  3.485e-03
 703.955  3.500e-03
 704.286  3.514e-03
 704.617  3.520e-03
 704.947  3.527e-03
 705.278  3.541e-03
 705.609  3.555e-03
 705.939  3.572e-03
 706.270  3.578e-03
 706.600  3.592e-03
 706.931  3.601e-03
 707.261  3.619e-03
 707.592  3.628e-03
 707.922  3.641e-03
 708.252  3.645e-03
 708.582  3.660e-03
 708.912  3.672e-03
 709.243  3.683e-03
 709.573  3.689e-03
 709.903  3.700e-03
 710.233  3.714e-03
 710.563  3.728e-03
 710.892  3.734e-03
 711.222  3.744e-03
 711.552  3.755e-03
 711.882  3.768e-03
 712.211  3.779e-03
 712.541  3.791e-03
 712.870  3.808e-03
 713.200  3.817e-03
 713.529  3.825e-03
 713.859  3.829e-03
 714.188  3.844e-03
 714.518  3.859e-03
 714.847  3.871e-03
 715.176  3.880e-03
 715.505  3.894e-03
 715.834  3.909e-03
 716.163  3.922e-03
 716.492  3.929e-03
 716.821  3.934e-03
 717.150  3.945e-03
 717.479  3.951e-03
 717.808  3.966e-03
 718.137  3.980e-03
 718.465  3.995e-03
 718.794  4.006e-03
 719.123  4.015e-03
 719.451  4.027e-03
 719.780  4.038e-03
 720.108  4.050e-03
 720.437  4.059e-03
 720.765  4.072e-03
 721.093  4.086e-03
 721.422  4.104e-03
 721.750  4.115e-03
 722.078  4.124e-03
 722.406  4.131e-03
 722.734  4.150e-03
 723.062  4.160e-03
 723.390  4.173e-03
 723.718  4.180e-03
 724.046  4.196e-03
 724.374  4.213e-03
 724.702  4.225e-03
 725.029  4.232e-03
 725.357  4.239e-03
 725.685  4.245e-03
 726.012  4.261e-03
 726.340  4.270e-03
 726.667  4.284e-03
 726.995  4.295e-03
 727.322  4.309e-03
 727.649  4.325e-03
 727.977  4.335e-03
 728.304  4.348e-03
 728.631  4.354e-03
 728.958  4.364e-03
 729.285  4.376e-03
 729.612  4.387e-03
 729.939  4.405e-03
 730.266  4.419e-03
 730.593  4.433e-03
 730.920  4.440e-03
 731.246  4.446e-03
 731.573  4.464e-03
 731.900  4.475e-03
 732.226  4.484e-03
 732.553  4.495e-03
 732.880  4.511e-03
 733.206  4.523e-03
 733.532  4.532e-03
 733.859  4.544e-03
 734.185  4.556e-03
 734.511  4.567e-03
 734.838  4.572e-03
 735.164  4.584e-03
 735.490  4.600e-03
 735.816  4.616e-03
 736.142  4.632e-03
 736.468  4.640e-03
 736.794  4.649e-03
 737.120  4.652e-03
 737.446  4.661e-03
 737.771  4.669e-03
 738.097  4.684e-03
 738.423  4.693e-03
 738.748  4.709e-03
 739.074  4.719e-03
 739.399  4.731e-03
 739.725  4.733e-03
 740.050  4.742e-03
 740.376  4.754e-03
 740.701  4.767e-03
 741.026  4.778e-03
 741.352  4.783e-03
 741.677  4.797e-03
 742.002  4.808e-03
 742.327  4.821e-03
 742.652  4.833e-03
 742.977  4.849e-03
 743.302  4.863e-03
 743.627  4.873e-03
 743.951  4.878e-03
 744.276  4.890e-03
 744.601  4.900e-03
 744.926  4.910e-03
 745.250  4.916e-03
 745.575  4.926e-03
 745.899  4.946e-03
 746.224  4.955e-03
 746.548  4.967e-03
 746.873  4.975e-03
 747.197  4.986e-03
 747.521  4.993e-03
 747.845  5.004e-03
 748.170  5.020e-03
 748.494  5.039e-03
 748.818  5.045e-03
 749.142  5.055e-03
 749.466  5.061e-03
 749.790  5.073e-03
 750.113  5.078e-03
 750.437  5.091e-03
 750.761  5.105e-03
 751.085  5.115e-03
 751.408  5.123e-03
 751.732  5.132e-03
 752.056  5.141e-03
 752.379  5.153e-03
 752.702  5.162e-03
 753.026  5.181e-03
 753.349  5.193e-03
 753.673  5.201e-03
 753.996  5.206e-03
 754.319  5.211e-03
 754.642  5.220e-03
 754.965  5.232e-03
 755.288  5.254e-03
 755.611  5.268e-03
 755.934  5.275e-03
 756.257  5.274e-03
 756.580  5.283e-03
 756.903  5.296e-03
 757.226  5.311e-03
 757.548  5.323e-03
 757.871  5.333e-03
 758.194  5.344e-03
 758.516  5.354e-03
 758.839  5.361e-03
 759.161  5.370e-03
 759.483  5.377e-03
 759.806  5.392e-03
 760.128  5.406e-03
 760.450  5.416e-03
 760.772  5.425e-03
 761.095  5.435e-03
 761.417  5.444e-03
 761.739  5.449e-03
 762.061  5.458e-03
 762.383  5.468e-03
 762.705  5.476e-03
 763.026  5.486e-03
 763.348  5.492e-03
 763.670  5.512e-03
 763.992  5.519e-03
 764.313  5.533e-03
 764.635  5.541e-03
 764.956  5.556e-03
 765.278  5.566e-03
 765.599  5.579e-03
 765.921  5.587e-03
 766.242  5.596e-03
 766.563  5.597e-03
 766.884  5.605e-03
 767.206  5.613e-03
 767.527  5.625e-03
 767.848  5.630e-03
 768.169  5.646e-03
 768.490  5.655e-03
 768.811  5.667e-03
 769.132  5.673e-03
 769.452  5.678e-03
 769.773  5.690e-03
 770.094  5.714e-03
 770.415  5.730e-03
 770.735  5.737e-03
 771.056  5.741e-03
 771.376  5.742e-03
 771.697  5.750e-03
 772.017  5.754e-03
 772.338  5.769e-03
 772.658  5.777e-03
 772.978  5.787e-03
 773.298  5.795e-03
 773.619  5.811e-03
 773.939  5.815e-03
 774.259  5.830e-03
 774.579  5.831e-03
 774.899  5.842e-03
 775.219  5.851e-03
 775.538  5.869e-03
 775.858  5.879e-03
 776.178  5.879e-03
 776.498  5.883e-03
 776.817  5.892e-03
 777.137  5.898e-03
 777.456  5.911e-03
 777.776  5.914e-03
 778.095  5.927e-03
 778.415  5.925e-03
 778.734  5.938e-03
 779.053  5.951e-03
 779.373  5.965e-03
 779.692  5.975e-03
 780.011  5.971e-03
 780.330  5.980e-03
 780.649  5.988e-03
 780.968  6.003e-03
 781.287  6.011e-03
 781.606  6.019e-03
 781.925  6.035e-03
 782.244  6.050e-03
 782.562  6.050e-03
 782.881  6.051e-03
 783.200  6.043e-03
 783.518  6.058e-03
 783.837  6.061e-03
 784.155  6.074e-03
 784.474  6.080e-03
 784.792  6.093e-03
 785.110  6.102e-03
 785.429  6.109e-03
 785.747  6.118e-03
 786.065  6.124e-03
 786.383  6.130e-03
 786.701  6.130e-03
 787.019  6.142e-03
 787.337  6.152e-03
 787.655  6.159e-03
 787.973  6.162e-03
 788.291  6.165e-03
 788.608  6.170e-03
 788.926  6.173e-03
 789.244  6.185e-03
 789.561  6.203e-03
 789.879  6.216e-03
 790.196  6.219e-03
 790.514  6.232e-03
 790.831  6.233e-03
 791.149  6.241e-03
 791.466  6.234e-03
 791.783  6.248e-03
 792.100  6.259e-03
 792.418  6.278e-03
 792.735  6.284e-03
 793.052  6.289e-03
 793.369  6.288e-03
 793.686  6.295e-03
 794.002  6.303e-03
 794.319  6.315e-03
 794.636  6.312e-03
 794.953  6.318e-03
 795.269  6.314e-03
 795.586  6.330e-03
 795.903  6.345e-03
 796.219  6.369e-03
 796.536  6.369e-03
 796.852  6.357e-03
 797.168  6.362e-03
 797.485  6.372e-03
 797.801  6.392e-03
 798.117  6.392e-03
 798.433  6.400e-03
 798.750  6.414e-03
 799.066  6.416e-03
 799.382  6.428e-03
 799.698  6.433e-03
 800.013  6.438e-03
 800.329  6.439e-03
 800.645  6.445e-03
 800.961  6.458e-03
 801.277  6.473e-03
 801.592  6.475e-03
 801.908  6.498e-03
 802.223  6.498e-03
 802.539  6.508e-03
 802.854  6.500e-03
 803.170  6.512e-03
 803.485  6.517e-03
 803.800  6.526e-03
 804.116  6.538e-03
 804.431  6.546e-03
 804.746  6.543e-03
 805.061  6.542e-03
 805.376  6.546e-03
 805.691  6.558e-03
 806.006  6.566e-03
 806.321  6.578e-03
 806.636  6.587e-03
 806.950  6.599e-03
 807.265  6.595e-03
 807.580  6.603e-03
 807.894  6.604e-03
 808.209  6.617e-03
 808.523  6.622e-03
 808.838  6.633e-03
 809.152  6.641e-03
 809.467  6.638e-03
 809.781  6.641e-03
 810.095  6.648e-03
 810.409  6.668e-03
 810.724  6.670e-03
 811.038  6.682e-03
 811.352  6.685e-03
 811.666  6.694e-03
 811.980  6.696e-03
 812.294  6.701e-03
 812.607  6.705e-03
 812.921  6.713e-03
 813.235  6.721e-03
 813.549  6.729e-03
 813.862  6.731e-03
 814.176  6.739e-03
 814.489  6.751e-03
 814.803  6.751e-03
 815.116  6.755e-03
 815.430  6.766e-03
 815.743  6.781e-03
 816.056  6.793e-03
 816.369  6.798e-03
 816.683  6.806e-03
 816.996  6.812e-03
 817.309  6.820e-03
 817.622  6.831e-03
 817.935  6.835e-03
 818.248  6.831e-03
 818.561  6.836e-03
 818.873  6.837e-03
 819.186  6.849e-03
 819.499  6.848e-03
 819.811  6.860e-03
 820.124  6.867e-03
 820.437  6.885e-03
 820.749  6.893e-03
 821.061  6.894e-03
 821.374  6.893e-03
 821.686  6.889e-03
 821.998  6.899e-03
 822.311  6.912e-03
 822.623  6.914e-03
 822.935  6.909e-03
 823.247  6.910e-03
 823.559  6.939e-03
 823.871  6.961e-03
 824.183  6.970e-03
 824.495  6.949e-03
 824.807  6.943e-03
 825.118  6.942e-03
 825.430  6.968e-03
 825.742  6.981e-03
 826.053  6.986e-03
 826.365  6.992e-03
 826.676  7.001e-03
 826.988  7.023e-03
 827.299  7.028e-03
 827.611  7.034e-03
 827.922  7.028e-03
 828.233  7.031e-03
 828.544  7.038e-03
 828.856  7.046e-03
 829.167  7.048e-03
 829.478  7.048e-03
 829.789  7.060e-03
 830.100  7.077e-03
 830.410  7.090e-03
 830.721  7.102e-03
 831.032  7.106e-03
 831.343  7.112e-03
 831.653  7.112e-03
 831.964  7.119e-03
 832.275  7.124e-03
 832.585  7.127e-03
 832.896  7.131e-03
 833.206  7.127e-03
 833.516  7.132e-03
 833.827  7.135e-03
 834.137  7.147e-03
 834.447  7.151e-03
 834.757  7.163e-03
 835.067  7.177e-03
 835.377  7.188e-03
 835.687  7.183e-03
 835.997  7.193e-03
 836.307  7.202e-03
 836.617  7.232e-03
 836.927  7.231e-03
 837.236  7.237e-03
 837.546  7.228e-03
 837.856  7.242e-03
 838.165  7.251e-03
 838.475  7.257e-03
 838.784  7.265e-03
 839.094  7.273e-03
 839.403  7.278e-03
 839.712  7.283e-03
 840.022  7.274e-03
 840.331  7.300e-03
 840.640  7.304e-03
 840.949  7.320e-03
 841.258  7.308e-03
 841.567  7.335e-03
 841.876  7.357e-03
 842.185  7.366e-03
 842.494  7.359e-03
 842.802  7.350e-03
 843.111  7.353e-03
 843.420  7.349e-03
 843.728  7.363e-03
 844.037  7.382e-03
 844.346  7.409e-03
 844.654  7.413e-03
 844.962  7.416e-03
 845.271  7.427e-03
 845.579  7.434e-03
 845.887  7.452e-03
 846.196  7.471e-03
 846.504  7.477e-03
 846.812  7.490e-03
 847.120  7.458e-03
 847.428  7.483e-03
 847.736  7.483e-03
 848.044  7.493e-03
 848.351  7.485e-03
 848.659  7.487e-03
 848.967  7.507e-03
 849.275  7.517e-03
 849.582  7.524e-03
 849.890  7.528e-03
 850.197  7.538e-03
 850.505  7.559e-03
 850.812  7.584e-03
 851.120  7.596e-03
 851.427  7.595e-03
 851.734  7.601e-03
 852.041  7.618e-03
 852.349  7.624e-03
 852.656  7.608e-03
 852.963  7.609e-03
 853.270  7.618e-03
 853.577  7.635e-03
 853.883  7.630e-03
 854.190  7.625e-03
 854.497  7.637e-03
 854.804  7.655e-03
 855.110  7.675e-03
 855.417  7.670e-03
 855.724  7.681e-03
 856.030  7.681e-03
 856.337  7.697e-03
 856.643  7.686e-03
 856.949  7.710e-03
 857.256  7.710e-03
 857.562  7.715e-03
 857.868  7.723e-03
 858.174  7.736e-03
 858.480  7.756e-03
 858.786  7.741e-03
 859.092  7.733e-03
 859.398  7.740e-03
 859.704  7.751e-03
 860.010  7.770e-03
 860.316  7.764e-03
 860.622  7.776e-03
 860.927  7.793e-03
 861.233  7.809e-03
 861.538  7.823e-03
 861.844  7.832e-03
 862.149  7.842e-03
 862.455  7.824e-03
 862.760  7.816e-03
 863.065  7.808e-03
 863.371  7.828e-03
 863.676  7.831e-03
 863.981  7.846e-03
 864.286  7.860e-03
 864.591  7.868e-03
 864.896  7.880e-03
 865.201  7.870e-03
 865.506  7.878e-03
 865.811  7.871e-03
 866.115  7.893e-03
 866.420  7.909e-03
 866.725  7.922e-03
 867.029  7.942e-03
 867.334  7.955e-03
 867.638  7.960e-03
 867.943  7.958e-03
 868.247  7.949e-03
 868.552  7.968e-03
 868.856  7.953e-03
 869.160  7.961e-03
 869.464  7.961e-03
 869.768  7.982e-03
 870.073  7.997e-03
 870.377  7.996e-03
 870.681  7.994e-03
 870.984  7.999e-03
 871.288  8.022e-03
 871.592  8.032e-03
 871.896  8.033e-03
 872.200  8.016e-03
 872.503  8.016e-03
 872.807  8.032e-03
 873.110  8.051e-03
 873.414  8.055e-03
 873.717  8.070e-03
 874.021  8.084e-03
 874.324  8.107e-03
 874.627  8.102e-03
 874.931  8.103e-03
 875.234  8.090e-03
 875.537  8.095e-03
 875.840  8.094e-03
 876.143  8.115e-03
 876.446  8.124e-03
 876.749  8.139e-03
 877.052  8.151e-03
 877.354  8.146e-03
 877.657  8.147e-03
 877.960  8.172e-03
 878.262  8.176e-03
 878.565  8.204e-03
 878.868  8.214e-03
 879.170  8.238e-03
 879.473  8.218e-03
 879.775  8.219e-03
 880.077  8.229e-03
 880.379  8.264e-03
 880.682  8.261e-03
 880.984  8.253e-03
 881.286  8.257e-03
 881.588  8.250e-03
 881.890  8.263e-03
 882.192  8.272e-03
 882.494  8.294e-03
 882.796  8.289e-03
 883.097  8.274e-03
 883.399  8.276e-03
 883.701  8.299e-03
 884.002  8.313e-03
 884.304  8.330e-03
 884.606  8.348e-03
 884.907  8.378e-03
 885.208  8.371e-03
 885.510  8.360e-03
 885.811  8.345e-03
 886.112  8.370e-03
 886.414  8.391e-03
 886.715  8.424e-03
 887.016  8.415e-03
 887.317  8.432e-03
 887.618  8.413e-03
 887.919  8.416e-03
 888.220  8.440e-03
 888.520  8.429e-03
 888.821  8.457e-03
 889.122  8.436e-03
 889.423  8.478e-03
 889.723  8.473e-03
 890.024  8.459e-03
 890.324  8.447e-03
 890.625  8.456e-03
 890.925  8.471e-03
 891.225  8.500e-03
 891.526  8.513e-03
 891.826  8.527e-03
 892.126  8.540e-03
 892.426  8.545e-03
 892.726  8.536e-03
 893.026  8.515e-03
 893.326  8.522e-03
 893.626  8.542e-03
 893.926  8.560e-03
 894.226  8.573e-03
 894.526  8.587e-03
 894.825  8.605e-03
 895.125  8.606e-03
 895.424  8.596e-03
 895.724  8.589e-03
 896.023  8.585e-03
 896.323  8.632e-03
 896.622  8.654e-03
 896.922  8.698e-03
 897.221  8.670e-03
 897.520  8.668e-03
 897.819  8.662e-03
 898.118  8.669e-03
 898.417  8.680e-03
 898.716  8.697e-03
 899.015  8.725e-03
 899.314  8.735e-03
 899.613  8.723e-03
 899.912  8.727e-03
 900.210  8.735e-03
 900.509  8.750e-03
 900.808  8.780e-03
 901.106  8.795e-03
 901.405  8.801e-03
 901.703  8.787e-03
 902.002  8.791e-03
 902.300  8.824e-03
 902.598  8.845e-03
 902.897  8.868e-03
 903.195  8.853e-03
 903.493  8.856e-03
 903.791  8.872e-03
 904.089  8.887e-03
 904.387  8.917e-03
 904.685  8.920e-03
 904.983  8.913e-03
 905.281  8.908e-03
 905.578  8.919e-03
 905.876  8.949e-03
 906.174  8.947e-03
 906.471  8.965e-03
 906.769  8.994e-03
 907.066  9.021e-03
 907.364  9.027e-03
 907.661  9.012e-03
 907.958  9.015e-03
 908.256  9.038e-03
 908.553  9.065e-03
 908.850  9.074e-03
 909.147  9.053e-03
 909.444  9.062e-03
 909.741  9.094e-03
 910.038  9.099e-03
 910.335  9.098e-03
 910.632  9.114e-03
 910.929  9.141e-03
 911.225  9.175e-03
 911.522  9.183e-03
 911.819  9.217e-03
 912.115  9.219e-03
 912.412  9.219e-03
 912.708  9.227e-03
 913.005  9.235e-03
 913.301  9.223e-03
 913.597  9.239e-03
 913.893  9.232e-03
 914.190  9.279e-03
 914.486  9.254e-03
 914.782  9.278e-03
 915.078  9.262e-03
 915.374  9.291e-03
 915.670  9.303e-03
 915.966  9.322e-03
 916.261  9.331e-03
 916.557  9.332e-03
 916.853  9.330e-03
 917.148  9.339e-03
 917.444  9.340e-03
 917.740  9.358e-03
 918.035  9.395e-03
 918.330  9.421e-03
 918.626  9.442e-03
 918.921  9.439e-03
 919.216  9.445e-03
 919.512  9.459e-03
 919.807  9.444e-03
 920.102  9.451e-03
 920.397  9.450e-03
 920.692  9.466e-03
 920.987  9.477e-03
 921.282  9.451e-03
 921.577  9.452e-03
 921.871  9.445e-03
 922.166  9.525e-03
 922.461  9.530e-03
 922.755  9.580e-03
 923.050  9.540e-03
 923.344  9.592e-03
 923.639  9.584e-03
 923.933  9.614e-03
 924.227  9.619e-03
 924.522  9.628e-03
 924.816  9.621e-03
 925.110  9.609e-03
 925.404  9.620e-03
 925.698  9.631e-03
 925.992  9.643e-03
 926.286  9.659e-03
 926.580  9.709e-03
 926.874  9.713e-03
 927.168  9.718e-03
 927.462  9.682e-03
 927.755  9.706e-03
 928.049  9.668e-03
 928.342  9.681e-03
 928.636  9.675e-03
 928.929  9.709e-03
 929.223  9.709e-03
 929.516  9.707e-03
 929.810  9.724e-03
 930.103  9.760e-03
 930.396  9.768e-03
 930.689  9.767e-03
 930.982  9.760e-03
 931.275  9.790e-03
 931.568  9.796e-03
 931.861  9.795e-03
 932.154  9.795e-03
 932.447  9.815e-03
 932.740  9.799e-03
 933.032  9.806e-03
 933.325  9.826e-03
 933.617  9.880e-03
 933.910  9.905e-03
 934.202  9.901e-03
 934.495  9.880e-03
 934.787  9.874e-03
 935.080  9.878e-03
 935.372  9.882e-03
 935.664  9.874e-03
 935.956  9.894e-03
 936.248  9.893e-03
 936.540  9.895e-03
 936.832  9.870e-03
 937.124  9.890e-03
 937.416  9.969e-03
 937.708  9.989e-03
 938.000  1.001e-02
 938.291  9.938e-03
 938.583  9.966e-03
 938.875  9.972e-03
 939.166  9.989e-03
 939.458  1.002e-02
 939.749  1.006e-02
 940.041  1.011e-02
 940.332  1.011e-02
 940.623  1.009e-02
 940.914  1.011e-02
 941.206  1.012e-02
 941.497  1.019e-02
 941.788  1.015e-02
 942.079  1.011e-02
 942.370  1.005e-02
 942.661  1.007e-02
 942.951  1.009e-02
 943.242  1.011e-02
 943.533  1.014e-02
 943.824  1.012e-02
 944.114  1.014e-02
 944.405  1.010e-02
 944.695  1.016e-02
 944.986  1.020e-02
 945.276  1.024e-02
 945.566  1.024e-02
 945.857  1.023e-02
 946.147  1.030e-02
 946.437  1.035e-02
 946.727  1.037e-02
 947.017  1.032e-02
 947.307  1.031e-02
 947.597  1.030e-02
 947.887  1.031e-02
 948.177  1.034e-02
 948.467  1.036e-02
 948.757  1.034e-02
 949.046  1.029e-02
 949.336  1.022e-02
 949.625  1.024e-02
 949.915  1.023e-02
 950.204  1.031e-02
 950.494  1.036e-02
 950.783  1.037e-02
 951.072  1.033e-02
 951.362  1.028e-02
 951.651  1.029e-02
 951.940  1.036e-02
 952.229  1.046e-02
 952.518  1.056e-02
 952.807  1.059e-02
 953.096  1.060e-02
 953.385  1.056e-02
 953.674  1.053e-02
 953.962  1.049e-02
 954.251  1.040e-02
 954.540  1.041e-02
 954.828  1.044e-02
 955.117  1.056e-02
 955.405  1.060e-02
 955.694  1.059e-02
 955.982  1.053e-02
 956.270  1.051e-02
 956.559  1.042e-02
 956.847  1.043e-02
 957.135  1.040e-02
 957.423  1.051e-02
 957.711  1.057e-02
 957.999  1.059e-02
 958.287  1.063e-02
 958.575  1.060e-02
 958.863  1.066e-02
 959.150  1.065e-02
 959.438  1.071e-02
 959.726  1.063e-02
 960.013  1.061e-02
 960.301  1.058e-02
 960.588  1.060e-02
 960.876  1.064e-02
 961.163  1.065e-02
 961.450  1.059e-02
 961.738  1.053e-02
 962.025  1.053e-02
 962.312  1.062e-02
 962.599  1.067e-02
 962.886  1.064e-02
 963.173  1.066e-02
 963.460  1.057e-02
 963.747  1.064e-02
 964.034  1.065e-02
 964.320  1.079e-02
 964.607  1.077e-02
 964.894  1.077e-02
 965.180  1.070e-02
 965.467  1.073e-02
 965.753  1.073e-02
 966.040  1.076e-02
 966.326  1.074e-02
 966.612  1.076e-02
 966.899  1.083e-02
 967.185  1.090e-02
 967.471  1.087e-02
 967.757  1.079e-02
 968.043  1.072e-02
 968.329  1.074e-02
 968.615  1.072e-02
 968.901  1.085e-02
 969.187  1.089e-02
 969.472  1.095e-02
 969.758  1.086e-02
 970.044  1.084e-02
 970.329  1.084e-02
 970.615  1.091e-02
 970.900  1.097e-02
 971.186  1.095e-02
 971.471  1.098e-02
 971.756  1.094e-02
 972.042  1.103e-02
 972.327  1.100e-02
 972.612  1.101e-02
 972.897  1.092e-02
 973.182  1.089e-02
 973.467  1.085e-02
 973.752  1.091e-02
 974.037  1.097e-02
 974.322  1.092e-02
 974.606  1.093e-02
 974.891  1.088e-02
 975.176  1.097e-02
 975.460  1.105e-02
 975.745  1.103e-02
 976.029  1.099e-02
 976.314  1.091e-02
 976.598  1.095e-02
 976.882  1.105e-02
 977.167  1.101e-02
 977.451  1.102e-02
 977.735  1.098e-02
 978.019  1.102e-02
 978.303  1.092e-02
 978.587  1.093e-02
 978.871  1.086e-02
 979.155  1.086e-02
 979.439  1.077e-02
 979.722  1.078e-02
 980.006  1.087e-02
 980.290  1.109e-02
 980.573  1.115e-02
 980.857  1.118e-02
 981.140  1.112e-02
 981.424  1.105e-02
 981.707  1.107e-02
 981.990  1.100e-02
 982.273  1.117e-02
 982.557  1.122e-02
 982.840  1.124e-02
 983.123  1.130e-02
 983.406  1.132e-02
 983.689  1.138e-02
 983.972  1.131e-02
 984.255  1.127e-02
 984.537  1.110e-02
 984.820  1.097e-02
 985.103  1.091e-02
 985.385  1.102e-02
 985.668  1.108e-02
 985.951  1.114e-02
 986.233  1.107e-02
 986.515  1.107e-02
 986.798  1.101e-02
 987.080  1.107e-02
 987.362  1.100e-02
 987.644  1.099e-02
 987.927  1.102e-02
 988.209  1.111e-02
 988.491  1.098e-02
 988.773  1.106e-02
 989.055  1.099e-02
 989.336  1.129e-02
 989.618  1.112e-02
 989.900  1.131e-02
 990.182  1.110e-02
 990.463  1.116e-02
 990.745  1.109e-02
 991.026  1.122e-02
 991.308  1.115e-02
 991.589  1.116e-02
 991.870  1.123e-02
 992.152  1.138e-02
 992.433  1.156e-02
 992.714  1.125e-02
 992.995  1.134e-02
 993.276  1.106e-02
 993.557  1.140e-02
 993.838  1.120e-02
 994.119  1.117e-02
 994.400  1.100e-02
 994.681  1.113e-02
 994.961  1.124e-02
 995.242  1.112e-02
 995.523  1.125e-02
 995.803  1.116e-02
 996.084  1.149e-02
 996.364  1.131e-02
 996.645  1.136e-02
 996.925  1.125e-02
 997.205  1.125e-02
 997.485  1.117e-02
 997.766  1.126e-02
 998.046  1.144e-02
 998.326  1.184e-02
 998.606  1.177e-02
 998.886  1.153e-02
 999.166  1.111e-02
 999.445  1.118e-02
 999.725  1.127e-02
1000.005  1.150e-02
1000.284  1.119e-02
1000.564  1.120e-02
1000.844  1.105e-02
1001.123  1.124e-02
1001.402  1.113e-02
1001.682  1.133e-02
1001.961  1.131e-02
1002.240  1.134e-02
1002.520  1.111e-02
1002.799  1.117e-02
1003.078  1.109e-02
1003.357  1.096e-02
1003.636  1.093e-02
1003.915  1.091e-02
1004.194  1.106e-02
1004.472  1.095e-02
1004.751  1.100e-02
1005.030  1.085e-02
1005.309  1.064e-02
1005.587  1.110e-02
1005.866  1.139e-02
1006.144  1.132e-02
1006.422  1.094e-02
1006.701  1.077e-02
1006.979  1.091e-02
1007.257  1.057e-02
1007.536  1.058e-02
1007.814  1.055e-02
1008.092  1.078e-02
1008.370  1.106e-02
1008.648  1.128e-02
1008.926  1.150e-02
1009.203  1.161e-02
1009.481  1.179e-02
1009.759  1.136e-02
1010.037  1.092e-02
1010.314  1.107e-02
1010.592  1.165e-02
1010.869  1.167e-02
1011.147  1.155e-02
1011.424  1.118e-02
1011.701  1.072e-02
1011.979  1.054e-02
1012.256  1.056e-02
1012.533  1.108e-02
1012.810  1.066e-02
1013.087  1.025e-02
1013.364  1.013e-02
1013.641  1.039e-02
1013.918  1.070e-02
1014.195  1.070e-02
